1.806800000000000000e+04
1.837200000000000000e+04
1.875600000000000000e+04
1.904400000000000000e+04
1.910800000000000000e+04
1.899600000000000000e+04
1.899600000000000000e+04
1.925200000000000000e+04
1.968400000000000000e+04
2.002000000000000000e+04
2.013200000000000000e+04
2.006800000000000000e+04
1.990800000000000000e+04
1.978000000000000000e+04
1.965200000000000000e+04
1.955600000000000000e+04
1.968400000000000000e+04
1.979600000000000000e+04
1.971600000000000000e+04
1.954000000000000000e+04
1.938000000000000000e+04
1.920400000000000000e+04
1.912400000000000000e+04
1.914000000000000000e+04
1.920400000000000000e+04
1.934800000000000000e+04
1.947600000000000000e+04
1.917200000000000000e+04
1.926800000000000000e+04
1.928400000000000000e+04
1.917200000000000000e+04
1.904400000000000000e+04
1.894800000000000000e+04
1.893200000000000000e+04
1.898000000000000000e+04
1.907600000000000000e+04
1.915600000000000000e+04
1.907600000000000000e+04
1.898000000000000000e+04
1.910800000000000000e+04
1.941200000000000000e+04
1.970000000000000000e+04
1.973200000000000000e+04
1.960400000000000000e+04
1.970000000000000000e+04
1.994000000000000000e+04
2.024400000000000000e+04
2.053300000000000000e+04
2.080500000000000000e+04
2.091700000000000000e+04
2.078900000000000000e+04
2.091700000000000000e+04
2.120500000000000000e+04
2.141300000000000000e+04
2.138100000000000000e+04
2.118900000000000000e+04
2.101300000000000000e+04
2.083700000000000000e+04
2.069300000000000000e+04
2.061300000000000000e+04
2.043600000000000000e+04
2.026000000000000000e+04
2.013200000000000000e+04
2.000400000000000000e+04
1.982800000000000000e+04
1.973200000000000000e+04
1.952400000000000000e+04
1.952400000000000000e+04
1.958800000000000000e+04
1.971600000000000000e+04
1.984400000000000000e+04
1.992400000000000000e+04
1.992400000000000000e+04
1.981200000000000000e+04
1.976400000000000000e+04
1.974800000000000000e+04
1.963600000000000000e+04
1.960400000000000000e+04
1.968400000000000000e+04
1.984400000000000000e+04
2.002000000000000000e+04
2.030800000000000000e+04
2.061300000000000000e+04
2.080500000000000000e+04
2.082100000000000000e+04
2.069300000000000000e+04
2.054900000000000000e+04
2.045200000000000000e+04
2.029200000000000000e+04
2.010000000000000000e+04
1.994000000000000000e+04
1.974800000000000000e+04
1.960400000000000000e+04
1.944400000000000000e+04
1.928400000000000000e+04
1.915600000000000000e+04
1.910800000000000000e+04
1.907600000000000000e+04
1.901200000000000000e+04
1.898000000000000000e+04
1.899600000000000000e+04
1.901200000000000000e+04
1.890000000000000000e+04
1.894800000000000000e+04
1.901200000000000000e+04
1.922000000000000000e+04
1.930000000000000000e+04
1.923600000000000000e+04
1.907600000000000000e+04
1.891600000000000000e+04
1.875600000000000000e+04
1.862800000000000000e+04
1.856400000000000000e+04
1.859600000000000000e+04
1.883600000000000000e+04
1.914000000000000000e+04
1.934800000000000000e+04
1.936400000000000000e+04
1.928400000000000000e+04
1.918800000000000000e+04
1.904400000000000000e+04
1.904400000000000000e+04
1.917200000000000000e+04
1.925200000000000000e+04
1.922000000000000000e+04
1.920400000000000000e+04
1.933200000000000000e+04
1.936400000000000000e+04
1.933200000000000000e+04
1.925200000000000000e+04
1.910800000000000000e+04
1.904400000000000000e+04
1.912400000000000000e+04
1.915600000000000000e+04
1.915600000000000000e+04
1.914000000000000000e+04
1.907600000000000000e+04
1.894800000000000000e+04
1.878800000000000000e+04
1.862800000000000000e+04
1.850000000000000000e+04
1.840400000000000000e+04
1.843600000000000000e+04
1.853200000000000000e+04
1.853200000000000000e+04
1.850000000000000000e+04
1.845200000000000000e+04
1.811600000000000000e+04
1.794000000000000000e+04
1.787600000000000000e+04
1.794000000000000000e+04
1.803600000000000000e+04
1.816400000000000000e+04
1.819600000000000000e+04
1.813200000000000000e+04
1.813200000000000000e+04
1.822800000000000000e+04
1.830800000000000000e+04
1.819600000000000000e+04
1.806800000000000000e+04
1.789200000000000000e+04
1.771600000000000000e+04
1.770000000000000000e+04
1.794000000000000000e+04
1.848400000000000000e+04
1.912400000000000000e+04
1.950800000000000000e+04
1.974800000000000000e+04
1.973200000000000000e+04
1.955600000000000000e+04
1.952400000000000000e+04
1.958800000000000000e+04
1.966800000000000000e+04
1.963600000000000000e+04
1.955600000000000000e+04
1.939600000000000000e+04
1.928400000000000000e+04
1.915600000000000000e+04
1.909200000000000000e+04
1.915600000000000000e+04
1.912400000000000000e+04
1.899600000000000000e+04
1.883600000000000000e+04
1.872400000000000000e+04
1.874000000000000000e+04
1.883600000000000000e+04
1.890000000000000000e+04
1.885200000000000000e+04
1.872400000000000000e+04
1.861200000000000000e+04
1.851600000000000000e+04
1.838800000000000000e+04
1.827600000000000000e+04
1.813200000000000000e+04
1.800400000000000000e+04
1.786000000000000000e+04
1.774800000000000000e+04
1.765200000000000000e+04
1.750800000000000000e+04
1.755600000000000000e+04
1.760400000000000000e+04
1.752400000000000000e+04
1.738000000000000000e+04
1.725200000000000000e+04
1.725200000000000000e+04
1.733200000000000000e+04
1.747600000000000000e+04
1.762000000000000000e+04
1.768400000000000000e+04
1.771600000000000000e+04
1.770000000000000000e+04
1.760400000000000000e+04
1.752400000000000000e+04
1.742800000000000000e+04
1.728400000000000000e+04
1.715600000000000000e+04
1.712400000000000000e+04
1.707600000000000000e+04
1.683600000000000000e+04
1.685200000000000000e+04
1.680400000000000000e+04
1.678800000000000000e+04
1.670800000000000000e+04
1.659600000000000000e+04
1.661200000000000000e+04
1.669200000000000000e+04
1.678800000000000000e+04
1.672400000000000000e+04
1.669200000000000000e+04
1.691600000000000000e+04
1.725200000000000000e+04
1.757200000000000000e+04
1.758800000000000000e+04
1.765200000000000000e+04
1.806800000000000000e+04
1.843600000000000000e+04
1.861200000000000000e+04
1.861200000000000000e+04
1.840400000000000000e+04
1.826000000000000000e+04
1.813200000000000000e+04
1.808400000000000000e+04
1.805200000000000000e+04
1.802000000000000000e+04
1.795600000000000000e+04
1.781200000000000000e+04
1.768400000000000000e+04
1.763600000000000000e+04
1.770000000000000000e+04
1.784400000000000000e+04
1.813200000000000000e+04
1.824400000000000000e+04
1.810000000000000000e+04
1.808400000000000000e+04
1.814800000000000000e+04
1.818000000000000000e+04
1.818000000000000000e+04
1.805200000000000000e+04
1.806800000000000000e+04
1.826000000000000000e+04
1.862800000000000000e+04
1.899600000000000000e+04
1.922000000000000000e+04
1.912400000000000000e+04
1.923600000000000000e+04
1.944400000000000000e+04
1.954000000000000000e+04
1.950800000000000000e+04
1.938000000000000000e+04
1.923600000000000000e+04
1.910800000000000000e+04
1.907600000000000000e+04
1.907600000000000000e+04
1.901200000000000000e+04
1.896400000000000000e+04
1.891600000000000000e+04
1.886800000000000000e+04
1.875600000000000000e+04
1.882000000000000000e+04
1.888400000000000000e+04
1.885200000000000000e+04
1.874000000000000000e+04
1.858000000000000000e+04
1.854800000000000000e+04
1.853200000000000000e+04
1.850000000000000000e+04
1.835600000000000000e+04
1.837200000000000000e+04
1.853200000000000000e+04
1.870800000000000000e+04
1.882000000000000000e+04
1.890000000000000000e+04
1.891600000000000000e+04
1.883600000000000000e+04
1.870800000000000000e+04
1.862800000000000000e+04
1.853200000000000000e+04
1.837200000000000000e+04
1.824400000000000000e+04
1.811600000000000000e+04
1.805200000000000000e+04
1.806800000000000000e+04
1.806800000000000000e+04
1.795600000000000000e+04
1.781200000000000000e+04
1.771600000000000000e+04
1.770000000000000000e+04
1.771600000000000000e+04
1.784400000000000000e+04
1.819600000000000000e+04
1.834000000000000000e+04
1.840400000000000000e+04
1.838800000000000000e+04
1.822800000000000000e+04
1.808400000000000000e+04
1.798800000000000000e+04
1.800400000000000000e+04
1.819600000000000000e+04
1.826000000000000000e+04
1.822800000000000000e+04
1.811600000000000000e+04
1.798800000000000000e+04
1.792400000000000000e+04
1.818000000000000000e+04
1.862800000000000000e+04
1.902800000000000000e+04
1.923600000000000000e+04
1.922000000000000000e+04
1.909200000000000000e+04
1.898000000000000000e+04
1.888400000000000000e+04
1.885200000000000000e+04
1.882000000000000000e+04
1.882000000000000000e+04
1.877200000000000000e+04
1.866000000000000000e+04
1.859600000000000000e+04
1.866000000000000000e+04
1.862800000000000000e+04
1.851600000000000000e+04
1.851600000000000000e+04
1.845200000000000000e+04
1.827600000000000000e+04
1.814800000000000000e+04
1.802000000000000000e+04
1.795600000000000000e+04
1.797200000000000000e+04
1.795600000000000000e+04
1.792400000000000000e+04
1.779600000000000000e+04
1.771600000000000000e+04
1.766800000000000000e+04
1.760400000000000000e+04
1.747600000000000000e+04
1.736400000000000000e+04
1.730000000000000000e+04
1.720400000000000000e+04
1.709200000000000000e+04
1.696400000000000000e+04
1.685200000000000000e+04
1.670800000000000000e+04
1.659600000000000000e+04
1.664400000000000000e+04
1.674000000000000000e+04
1.702800000000000000e+04
1.750800000000000000e+04
1.808400000000000000e+04
1.840400000000000000e+04
1.838800000000000000e+04
1.834000000000000000e+04
1.822800000000000000e+04
1.843600000000000000e+04
1.875600000000000000e+04
1.902800000000000000e+04
1.914000000000000000e+04
1.904400000000000000e+04
1.902800000000000000e+04
1.896400000000000000e+04
1.878800000000000000e+04
1.864400000000000000e+04
1.854800000000000000e+04
1.840400000000000000e+04
1.837200000000000000e+04
1.837200000000000000e+04
1.838800000000000000e+04
1.827600000000000000e+04
1.816400000000000000e+04
1.798800000000000000e+04
1.784400000000000000e+04
1.771600000000000000e+04
1.757200000000000000e+04
1.782800000000000000e+04
1.794000000000000000e+04
1.781200000000000000e+04
1.774800000000000000e+04
1.765200000000000000e+04
1.747600000000000000e+04
1.742800000000000000e+04
1.747600000000000000e+04
1.763600000000000000e+04
1.782800000000000000e+04
1.782800000000000000e+04
1.766800000000000000e+04
1.746000000000000000e+04
1.738000000000000000e+04
1.747600000000000000e+04
1.760400000000000000e+04
1.770000000000000000e+04
1.762000000000000000e+04
1.755600000000000000e+04
1.766800000000000000e+04
1.787600000000000000e+04
1.814800000000000000e+04
1.838800000000000000e+04
1.858000000000000000e+04
1.864400000000000000e+04
1.867600000000000000e+04
1.856400000000000000e+04
1.848400000000000000e+04
1.853200000000000000e+04
1.862800000000000000e+04
1.866000000000000000e+04
1.859600000000000000e+04
1.843600000000000000e+04
1.835600000000000000e+04
1.832400000000000000e+04
1.835600000000000000e+04
1.848400000000000000e+04
1.853200000000000000e+04
1.859600000000000000e+04
1.856400000000000000e+04
1.846800000000000000e+04
1.837200000000000000e+04
1.827600000000000000e+04
1.837200000000000000e+04
1.862800000000000000e+04
1.872400000000000000e+04
1.869200000000000000e+04
1.851600000000000000e+04
1.843600000000000000e+04
1.843600000000000000e+04
1.843600000000000000e+04
1.827600000000000000e+04
1.821200000000000000e+04
1.810000000000000000e+04
1.832400000000000000e+04
1.862800000000000000e+04
1.890000000000000000e+04
1.886800000000000000e+04
1.878800000000000000e+04
1.880400000000000000e+04
1.891600000000000000e+04
1.901200000000000000e+04
1.898000000000000000e+04
1.869200000000000000e+04
1.853200000000000000e+04
1.848400000000000000e+04
1.850000000000000000e+04
1.856400000000000000e+04
1.859600000000000000e+04
1.859600000000000000e+04
1.864400000000000000e+04
1.861200000000000000e+04
1.848400000000000000e+04
1.838800000000000000e+04
1.843600000000000000e+04
1.854800000000000000e+04
1.861200000000000000e+04
1.856400000000000000e+04
1.843600000000000000e+04
1.830800000000000000e+04
1.824400000000000000e+04
1.819600000000000000e+04
1.806800000000000000e+04
1.800400000000000000e+04
1.813200000000000000e+04
1.840400000000000000e+04
1.869200000000000000e+04
1.878800000000000000e+04
1.870800000000000000e+04
1.856400000000000000e+04
1.845200000000000000e+04
1.845200000000000000e+04
1.843600000000000000e+04
1.838800000000000000e+04
1.826000000000000000e+04
1.811600000000000000e+04
1.800400000000000000e+04
1.798800000000000000e+04
1.806800000000000000e+04
1.813200000000000000e+04
1.814800000000000000e+04
1.800400000000000000e+04
1.792400000000000000e+04
1.776400000000000000e+04
1.762000000000000000e+04
1.747600000000000000e+04
1.741200000000000000e+04
1.741200000000000000e+04
1.733200000000000000e+04
1.718800000000000000e+04
1.704400000000000000e+04
1.691600000000000000e+04
1.696400000000000000e+04
1.702800000000000000e+04
1.693200000000000000e+04
1.691600000000000000e+04
1.693200000000000000e+04
1.706000000000000000e+04
1.731600000000000000e+04
1.762000000000000000e+04
1.773200000000000000e+04
1.762000000000000000e+04
1.757200000000000000e+04
1.757200000000000000e+04
1.757200000000000000e+04
1.754000000000000000e+04
1.787600000000000000e+04
1.808400000000000000e+04
1.798800000000000000e+04
1.787600000000000000e+04
1.810000000000000000e+04
1.794000000000000000e+04
1.776400000000000000e+04
1.768400000000000000e+04
1.762000000000000000e+04
1.750800000000000000e+04
1.736400000000000000e+04
1.738000000000000000e+04
1.750800000000000000e+04
1.771600000000000000e+04
1.786000000000000000e+04
1.784400000000000000e+04
1.773200000000000000e+04
1.758800000000000000e+04
1.749200000000000000e+04
1.734800000000000000e+04
1.722000000000000000e+04
1.722000000000000000e+04
1.717200000000000000e+04
1.706000000000000000e+04
1.690000000000000000e+04
1.682000000000000000e+04
1.677200000000000000e+04
1.670800000000000000e+04
1.666000000000000000e+04
1.653200000000000000e+04
1.638800000000000000e+04
1.627500000000000000e+04
1.621100000000000000e+04
1.609900000000000000e+04
1.608300000000000000e+04
1.616300000000000000e+04
1.629100000000000000e+04
1.632300000000000000e+04
1.622700000000000000e+04
1.609900000000000000e+04
1.595500000000000000e+04
1.590700000000000000e+04
1.608300000000000000e+04
1.642000000000000000e+04
1.670800000000000000e+04
1.661200000000000000e+04
1.656400000000000000e+04
1.691600000000000000e+04
1.738000000000000000e+04
1.757200000000000000e+04
1.747600000000000000e+04
1.749200000000000000e+04
1.758800000000000000e+04
1.770000000000000000e+04
1.766800000000000000e+04
1.750800000000000000e+04
1.742800000000000000e+04
1.750800000000000000e+04
1.773200000000000000e+04
1.789200000000000000e+04
1.800400000000000000e+04
1.808400000000000000e+04
1.795600000000000000e+04
1.782800000000000000e+04
1.766800000000000000e+04
1.749200000000000000e+04
1.733200000000000000e+04
1.720400000000000000e+04
1.712400000000000000e+04
1.704400000000000000e+04
1.693200000000000000e+04
1.680400000000000000e+04
1.677200000000000000e+04
1.675600000000000000e+04
1.667600000000000000e+04
1.653200000000000000e+04
1.642000000000000000e+04
1.627500000000000000e+04
1.614700000000000000e+04
1.605100000000000000e+04
1.600300000000000000e+04
1.595500000000000000e+04
1.584300000000000000e+04
1.573100000000000000e+04
1.555500000000000000e+04
1.536300000000000000e+04
1.520300000000000000e+04
1.525100000000000000e+04
1.555500000000000000e+04
1.577900000000000000e+04
1.584300000000000000e+04
1.590700000000000000e+04
1.582700000000000000e+04
1.581100000000000000e+04
1.592300000000000000e+04
1.606700000000000000e+04
1.614700000000000000e+04
1.619500000000000000e+04
1.629100000000000000e+04
1.617900000000000000e+04
1.613100000000000000e+04
1.629100000000000000e+04
1.638800000000000000e+04
1.633900000000000000e+04
1.632300000000000000e+04
1.630700000000000000e+04
1.621100000000000000e+04
1.621100000000000000e+04
1.619500000000000000e+04
1.617900000000000000e+04
1.605100000000000000e+04
1.595500000000000000e+04
1.597100000000000000e+04
1.606700000000000000e+04
1.619500000000000000e+04
1.630700000000000000e+04
1.633900000000000000e+04
1.640400000000000000e+04
1.635500000000000000e+04
1.625900000000000000e+04
1.621100000000000000e+04
1.651600000000000000e+04
1.699600000000000000e+04
1.736400000000000000e+04
1.742800000000000000e+04
1.738000000000000000e+04
1.731600000000000000e+04
1.718800000000000000e+04
1.710800000000000000e+04
1.707600000000000000e+04
1.696400000000000000e+04
1.686800000000000000e+04
1.674000000000000000e+04
1.667600000000000000e+04
1.672400000000000000e+04
1.672400000000000000e+04
1.666000000000000000e+04
1.658000000000000000e+04
1.656400000000000000e+04
1.651600000000000000e+04
1.653200000000000000e+04
1.653200000000000000e+04
1.621100000000000000e+04
1.614700000000000000e+04
1.627500000000000000e+04
1.648400000000000000e+04
1.677200000000000000e+04
1.694800000000000000e+04
1.686800000000000000e+04
1.691600000000000000e+04
1.707600000000000000e+04
1.717200000000000000e+04
1.717200000000000000e+04
1.715600000000000000e+04
1.704400000000000000e+04
1.704400000000000000e+04
1.709200000000000000e+04
1.717200000000000000e+04
1.718800000000000000e+04
1.709200000000000000e+04
1.698000000000000000e+04
1.694800000000000000e+04
1.690000000000000000e+04
1.685200000000000000e+04
1.678800000000000000e+04
1.666000000000000000e+04
1.666000000000000000e+04
1.666000000000000000e+04
1.658000000000000000e+04
1.653200000000000000e+04
1.656400000000000000e+04
1.651600000000000000e+04
1.653200000000000000e+04
1.658000000000000000e+04
1.661200000000000000e+04
1.670800000000000000e+04
1.694800000000000000e+04
1.691600000000000000e+04
1.699600000000000000e+04
1.725200000000000000e+04
1.754000000000000000e+04
1.770000000000000000e+04
1.776400000000000000e+04
1.778000000000000000e+04
1.774800000000000000e+04
1.776400000000000000e+04
1.768400000000000000e+04
1.758800000000000000e+04
1.744400000000000000e+04
1.752400000000000000e+04
1.786000000000000000e+04
1.822800000000000000e+04
1.848400000000000000e+04
1.838800000000000000e+04
1.830800000000000000e+04
1.834000000000000000e+04
1.845200000000000000e+04
1.850000000000000000e+04
1.851600000000000000e+04
1.843600000000000000e+04
1.830800000000000000e+04
1.814800000000000000e+04
1.800400000000000000e+04
1.795600000000000000e+04
1.797200000000000000e+04
1.792400000000000000e+04
1.774800000000000000e+04
1.770000000000000000e+04
1.760400000000000000e+04
1.758800000000000000e+04
1.760400000000000000e+04
1.776400000000000000e+04
1.795600000000000000e+04
1.832400000000000000e+04
1.843600000000000000e+04
1.835600000000000000e+04
1.819600000000000000e+04
1.805200000000000000e+04
1.797200000000000000e+04
1.806800000000000000e+04
1.824400000000000000e+04
1.818000000000000000e+04
1.813200000000000000e+04
1.821200000000000000e+04
1.834000000000000000e+04
1.853200000000000000e+04
1.862800000000000000e+04
1.851600000000000000e+04
1.853200000000000000e+04
1.877200000000000000e+04
1.899600000000000000e+04
1.898000000000000000e+04
1.883600000000000000e+04
1.870800000000000000e+04
1.856400000000000000e+04
1.845200000000000000e+04
1.837200000000000000e+04
1.824400000000000000e+04
1.830800000000000000e+04
1.845200000000000000e+04
1.850000000000000000e+04
1.850000000000000000e+04
1.835600000000000000e+04
1.848400000000000000e+04
1.893200000000000000e+04
1.934800000000000000e+04
1.965200000000000000e+04
1.971600000000000000e+04
1.960400000000000000e+04
1.949200000000000000e+04
1.958800000000000000e+04
1.978000000000000000e+04
1.995600000000000000e+04
2.005200000000000000e+04
2.003600000000000000e+04
1.992400000000000000e+04
1.984400000000000000e+04
1.981200000000000000e+04
1.981200000000000000e+04
1.971600000000000000e+04
1.958800000000000000e+04
1.962000000000000000e+04
1.970000000000000000e+04
1.981200000000000000e+04
1.992400000000000000e+04
1.997200000000000000e+04
1.986000000000000000e+04
1.978000000000000000e+04
1.963600000000000000e+04
1.952400000000000000e+04
1.952400000000000000e+04
1.960400000000000000e+04
1.973200000000000000e+04
1.981200000000000000e+04
1.979600000000000000e+04
1.966800000000000000e+04
1.981200000000000000e+04
2.018000000000000000e+04
2.048500000000000000e+04
2.069300000000000000e+04
2.077300000000000000e+04
2.072500000000000000e+04
2.062900000000000000e+04
2.045200000000000000e+04
1.974800000000000000e+04
1.960400000000000000e+04
1.947600000000000000e+04
1.934800000000000000e+04
1.920400000000000000e+04
1.910800000000000000e+04
1.898000000000000000e+04
1.890000000000000000e+04
1.882000000000000000e+04
1.877200000000000000e+04
1.883600000000000000e+04
1.872400000000000000e+04
1.858000000000000000e+04
1.845200000000000000e+04
1.832400000000000000e+04
1.813200000000000000e+04
1.800400000000000000e+04
1.786000000000000000e+04
1.771600000000000000e+04
1.760400000000000000e+04
1.754000000000000000e+04
1.738000000000000000e+04
1.742800000000000000e+04
1.746000000000000000e+04
1.750800000000000000e+04
1.763600000000000000e+04
1.770000000000000000e+04
1.757200000000000000e+04
1.744400000000000000e+04
1.742800000000000000e+04
1.741200000000000000e+04
1.731600000000000000e+04
1.714000000000000000e+04
1.702800000000000000e+04
1.702800000000000000e+04
1.712400000000000000e+04
1.718800000000000000e+04
1.717200000000000000e+04
1.715600000000000000e+04
1.709200000000000000e+04
1.715600000000000000e+04
1.710800000000000000e+04
1.696400000000000000e+04
1.682000000000000000e+04
1.674000000000000000e+04
1.666000000000000000e+04
1.659600000000000000e+04
1.654800000000000000e+04
1.646800000000000000e+04
1.640400000000000000e+04
1.633900000000000000e+04
1.627500000000000000e+04
1.619500000000000000e+04
1.611500000000000000e+04
1.611500000000000000e+04
1.606700000000000000e+04
1.593900000000000000e+04
1.577900000000000000e+04
1.576300000000000000e+04
1.577900000000000000e+04
1.585900000000000000e+04
1.582700000000000000e+04
1.566700000000000000e+04
1.553900000000000000e+04
1.539500000000000000e+04
1.525100000000000000e+04
1.507500000000000000e+04
1.497900000000000000e+04
1.483500000000000000e+04
1.485100000000000000e+04
1.493100000000000000e+04
1.494700000000000000e+04
1.483500000000000000e+04
1.494700000000000000e+04
1.550700000000000000e+04
1.597100000000000000e+04
1.617900000000000000e+04
1.611500000000000000e+04
1.608300000000000000e+04
1.614700000000000000e+04
1.664400000000000000e+04
1.702800000000000000e+04
1.706000000000000000e+04
1.686800000000000000e+04
1.672400000000000000e+04
1.659600000000000000e+04
1.651600000000000000e+04
1.635500000000000000e+04
1.622700000000000000e+04
1.608300000000000000e+04
1.593900000000000000e+04
1.581100000000000000e+04
1.566700000000000000e+04
1.552300000000000000e+04
1.542700000000000000e+04
1.549100000000000000e+04
1.566700000000000000e+04
1.584300000000000000e+04
1.589100000000000000e+04
1.574700000000000000e+04
1.576300000000000000e+04
1.573100000000000000e+04
1.561900000000000000e+04
1.560300000000000000e+04
1.571500000000000000e+04
1.574700000000000000e+04
1.569900000000000000e+04
1.593900000000000000e+04
1.630700000000000000e+04
1.648400000000000000e+04
1.648400000000000000e+04
1.645200000000000000e+04
1.632300000000000000e+04
1.619500000000000000e+04
1.611500000000000000e+04
1.605100000000000000e+04
1.603500000000000000e+04
1.601900000000000000e+04
1.589100000000000000e+04
1.579500000000000000e+04
1.187400000000000000e+04
1.181000000000000000e+04
1.173000000000000000e+04
1.165000000000000000e+04
1.152200000000000000e+04
1.144200000000000000e+04
1.136200000000000000e+04
1.134600000000000000e+04
1.141000000000000000e+04
1.145800000000000000e+04
1.133000000000000000e+04
1.129800000000000000e+04
1.129800000000000000e+04
1.126600000000000000e+04
1.121800000000000000e+04
1.121800000000000000e+04
1.131400000000000000e+04
1.149000000000000000e+04
1.157000000000000000e+04
1.149000000000000000e+04
1.145800000000000000e+04
1.147400000000000000e+04
1.147400000000000000e+04
1.144200000000000000e+04
1.141000000000000000e+04
1.134600000000000000e+04
1.123400000000000000e+04
1.115400000000000000e+04
1.104200000000000000e+04
1.096200000000000000e+04
1.089800000000000000e+04
1.083400000000000000e+04
1.080200000000000000e+04
1.077000000000000000e+04
1.072200000000000000e+04
1.073800000000000000e+04
1.077000000000000000e+04
1.083400000000000000e+04
1.101000000000000000e+04
1.126600000000000000e+04
1.129800000000000000e+04
1.123400000000000000e+04
1.126600000000000000e+04
1.142600000000000000e+04
1.152200000000000000e+04
1.149000000000000000e+04
1.141000000000000000e+04
1.137800000000000000e+04
1.129800000000000000e+04
1.118600000000000000e+04
1.113800000000000000e+04
1.107400000000000000e+04
1.105800000000000000e+04
1.104200000000000000e+04
1.093000000000000000e+04
1.083400000000000000e+04
1.072200000000000000e+04
1.062600000000000000e+04
1.054600000000000000e+04
1.046600000000000000e+04
1.045000000000000000e+04
1.041800000000000000e+04
1.041800000000000000e+04
1.043400000000000000e+04
1.041800000000000000e+04
1.046600000000000000e+04
1.051400000000000000e+04
1.045000000000000000e+04
1.046600000000000000e+04
1.043400000000000000e+04
1.032200000000000000e+04
1.021000000000000000e+04
1.014600000000000000e+04
1.008200000000000000e+04
1.001800000000000000e+04
1.005000000000000000e+04
1.024200000000000000e+04
1.045000000000000000e+04
1.054600000000000000e+04
1.053000000000000000e+04
1.057800000000000000e+04
1.065800000000000000e+04
1.065800000000000000e+04
1.062600000000000000e+04
1.059400000000000000e+04
1.077000000000000000e+04
1.105800000000000000e+04
1.136200000000000000e+04
1.158600000000000000e+04
1.169800000000000000e+04
1.165000000000000000e+04
1.152200000000000000e+04
1.145800000000000000e+04
1.136200000000000000e+04
1.126600000000000000e+04
1.117000000000000000e+04
1.107400000000000000e+04
1.096200000000000000e+04
1.093000000000000000e+04
1.093000000000000000e+04
1.096200000000000000e+04
1.102600000000000000e+04
1.115400000000000000e+04
1.121800000000000000e+04
1.126600000000000000e+04
1.128200000000000000e+04
1.120200000000000000e+04
1.107400000000000000e+04
1.097800000000000000e+04
1.089800000000000000e+04
1.088200000000000000e+04
1.094600000000000000e+04
1.109000000000000000e+04
1.129800000000000000e+04
1.158600000000000000e+04
1.168200000000000000e+04
1.173000000000000000e+04
1.195400000000000000e+04
1.222600000000000000e+04
1.256300000000000000e+04
1.286700000000000000e+04
1.294700000000000000e+04
1.285100000000000000e+04
1.281900000000000000e+04
1.280300000000000000e+04
1.280300000000000000e+04
1.277100000000000000e+04
1.272300000000000000e+04
1.265900000000000000e+04
1.261100000000000000e+04
1.248300000000000000e+04
1.238700000000000000e+04
1.229100000000000000e+04
1.221000000000000000e+04
1.209800000000000000e+04
1.198600000000000000e+04
1.192200000000000000e+04
1.179400000000000000e+04
1.168200000000000000e+04
1.165000000000000000e+04
1.166600000000000000e+04
1.166600000000000000e+04
1.166600000000000000e+04
1.161800000000000000e+04
1.155400000000000000e+04
1.150600000000000000e+04
1.144200000000000000e+04
1.152200000000000000e+04
1.155400000000000000e+04
1.155400000000000000e+04
1.145800000000000000e+04
1.142600000000000000e+04
1.134600000000000000e+04
1.123400000000000000e+04
1.115400000000000000e+04
1.104200000000000000e+04
1.096200000000000000e+04
1.088200000000000000e+04
1.077000000000000000e+04
1.065800000000000000e+04
1.054600000000000000e+04
1.046600000000000000e+04
1.040200000000000000e+04
1.038600000000000000e+04
1.035400000000000000e+04
1.033800000000000000e+04
1.029000000000000000e+04
1.016200000000000000e+04
1.011400000000000000e+04
1.003400000000000000e+04
9.954000000000000000e+03
1.000200000000000000e+04
1.005000000000000000e+04
1.003400000000000000e+04
1.003400000000000000e+04
9.954000000000000000e+03
9.874000000000000000e+03
9.794000000000000000e+03
9.842000000000000000e+03
9.762000000000000000e+03
9.874000000000000000e+03
9.954000000000000000e+03
9.890000000000000000e+03
9.922000000000000000e+03
1.005000000000000000e+04
1.013000000000000000e+04
1.003400000000000000e+04
9.970000000000000000e+03
9.874000000000000000e+03
9.794000000000000000e+03
9.762000000000000000e+03
9.810000000000000000e+03
9.890000000000000000e+03
9.890000000000000000e+03
9.794000000000000000e+03
9.746000000000000000e+03
9.778000000000000000e+03
9.810000000000000000e+03
9.826000000000000000e+03
9.874000000000000000e+03
9.842000000000000000e+03
9.954000000000000000e+03
1.017800000000000000e+04
1.027400000000000000e+04
1.021000000000000000e+04
1.011400000000000000e+04
1.006600000000000000e+04
9.986000000000000000e+03
9.986000000000000000e+03
1.003400000000000000e+04
9.954000000000000000e+03
9.874000000000000000e+03
9.810000000000000000e+03
9.746000000000000000e+03
9.730000000000000000e+03
9.778000000000000000e+03
9.746000000000000000e+03
9.698000000000000000e+03
9.778000000000000000e+03
9.890000000000000000e+03
1.003400000000000000e+04
1.011400000000000000e+04
1.017800000000000000e+04
1.016200000000000000e+04
1.021000000000000000e+04
1.024200000000000000e+04
1.016200000000000000e+04
1.025800000000000000e+04
1.041800000000000000e+04
1.048200000000000000e+04
1.049800000000000000e+04
1.041800000000000000e+04
1.033800000000000000e+04
1.029000000000000000e+04
1.025800000000000000e+04
1.016200000000000000e+04
1.016200000000000000e+04
1.030600000000000000e+04
1.041800000000000000e+04
1.045000000000000000e+04
1.035400000000000000e+04
1.069000000000000000e+04
1.072200000000000000e+04
1.065800000000000000e+04
1.054600000000000000e+04
1.049800000000000000e+04
1.046600000000000000e+04
1.043400000000000000e+04
1.045000000000000000e+04
1.040200000000000000e+04
1.059400000000000000e+04
1.085000000000000000e+04
1.101000000000000000e+04
1.105800000000000000e+04
1.104200000000000000e+04
1.102600000000000000e+04
1.093000000000000000e+04
1.083400000000000000e+04
1.078600000000000000e+04
1.096200000000000000e+04
1.125000000000000000e+04
1.155400000000000000e+04
1.181000000000000000e+04
1.195400000000000000e+04
1.197000000000000000e+04
1.187400000000000000e+04
1.177800000000000000e+04
1.165000000000000000e+04
1.152200000000000000e+04
1.141000000000000000e+04
1.129800000000000000e+04
1.117000000000000000e+04
1.109000000000000000e+04
1.101000000000000000e+04
1.097800000000000000e+04
1.096200000000000000e+04
1.096200000000000000e+04
1.096200000000000000e+04
1.093000000000000000e+04
1.088200000000000000e+04
1.083400000000000000e+04
1.083400000000000000e+04
1.094600000000000000e+04
1.107400000000000000e+04
1.104200000000000000e+04
1.104200000000000000e+04
1.110600000000000000e+04
1.128200000000000000e+04
1.145800000000000000e+04
1.153800000000000000e+04
1.152200000000000000e+04
1.173000000000000000e+04
1.206600000000000000e+04
1.222600000000000000e+04
1.221000000000000000e+04
1.219400000000000000e+04
1.219400000000000000e+04
1.217800000000000000e+04
1.213000000000000000e+04
1.208200000000000000e+04
1.219400000000000000e+04
1.219400000000000000e+04
1.209800000000000000e+04
1.208200000000000000e+04
1.205000000000000000e+04
1.195400000000000000e+04
1.187400000000000000e+04
1.181000000000000000e+04
1.177800000000000000e+04
1.179400000000000000e+04
1.181000000000000000e+04
1.176200000000000000e+04
1.169800000000000000e+04
1.168200000000000000e+04
1.169800000000000000e+04
1.174600000000000000e+04
1.173000000000000000e+04
1.168200000000000000e+04
1.157000000000000000e+04
1.153800000000000000e+04
1.155400000000000000e+04
1.129800000000000000e+04
1.137800000000000000e+04
1.157000000000000000e+04
1.179400000000000000e+04
1.192200000000000000e+04
1.184200000000000000e+04
1.181000000000000000e+04
1.185800000000000000e+04
1.197000000000000000e+04
1.922000000000000000e+04
1.950800000000000000e+04
2.016400000000000000e+04
2.062900000000000000e+04
2.075700000000000000e+04
2.058100000000000000e+04
2.053300000000000000e+04
2.054900000000000000e+04
2.056500000000000000e+04
2.061300000000000000e+04
2.082100000000000000e+04
2.102900000000000000e+04
2.101300000000000000e+04
2.083700000000000000e+04
2.082100000000000000e+04
2.078900000000000000e+04
2.062900000000000000e+04
2.053300000000000000e+04
2.042000000000000000e+04
2.042000000000000000e+04
2.042000000000000000e+04
2.026000000000000000e+04
2.019600000000000000e+04
2.022800000000000000e+04
2.032400000000000000e+04
2.019600000000000000e+04
2.019600000000000000e+04
2.032400000000000000e+04
2.046800000000000000e+04
2.053300000000000000e+04
2.054900000000000000e+04
2.046800000000000000e+04
2.030800000000000000e+04
2.030800000000000000e+04
2.051700000000000000e+04
2.083700000000000000e+04
2.099700000000000000e+04
2.096500000000000000e+04
2.080500000000000000e+04
2.062900000000000000e+04
2.062900000000000000e+04
2.064500000000000000e+04
2.051700000000000000e+04
2.050100000000000000e+04
2.061300000000000000e+04
2.072500000000000000e+04
2.077300000000000000e+04
2.067700000000000000e+04
2.058100000000000000e+04
2.058100000000000000e+04
2.051700000000000000e+04
2.024400000000000000e+04
2.006800000000000000e+04
1.990800000000000000e+04
1.971600000000000000e+04
1.962000000000000000e+04
1.962000000000000000e+04
1.958800000000000000e+04
1.946000000000000000e+04
1.930000000000000000e+04
1.928400000000000000e+04
1.938000000000000000e+04
1.946000000000000000e+04
1.934800000000000000e+04
1.928400000000000000e+04
1.922000000000000000e+04
1.904400000000000000e+04
1.890000000000000000e+04
1.872400000000000000e+04
1.854800000000000000e+04
1.840400000000000000e+04
1.837200000000000000e+04
1.827600000000000000e+04
1.814800000000000000e+04
1.798800000000000000e+04
1.784400000000000000e+04
1.770000000000000000e+04
1.762000000000000000e+04
1.757200000000000000e+04
1.763600000000000000e+04
1.787600000000000000e+04
1.813200000000000000e+04
1.821200000000000000e+04
1.813200000000000000e+04
1.797200000000000000e+04
1.782800000000000000e+04
1.778000000000000000e+04
1.789200000000000000e+04
1.810000000000000000e+04
1.814800000000000000e+04
1.805200000000000000e+04
1.797200000000000000e+04
1.800400000000000000e+04
1.810000000000000000e+04
1.816400000000000000e+04
1.819600000000000000e+04
1.834000000000000000e+04
1.874000000000000000e+04
1.907600000000000000e+04
1.904400000000000000e+04
1.894800000000000000e+04
1.904400000000000000e+04
1.933200000000000000e+04
1.987600000000000000e+04
2.043600000000000000e+04
2.082100000000000000e+04
2.104500000000000000e+04
2.112500000000000000e+04
2.106100000000000000e+04
2.091700000000000000e+04
2.088500000000000000e+04
2.086900000000000000e+04
2.082100000000000000e+04
2.075700000000000000e+04
2.067700000000000000e+04
2.058100000000000000e+04
2.054900000000000000e+04
2.048500000000000000e+04
2.046800000000000000e+04
2.038800000000000000e+04
2.024400000000000000e+04
2.016400000000000000e+04
2.027600000000000000e+04
2.042000000000000000e+04
2.046800000000000000e+04
2.046800000000000000e+04
2.030800000000000000e+04
2.029200000000000000e+04
2.035600000000000000e+04
2.054900000000000000e+04
2.083700000000000000e+04
2.107700000000000000e+04
2.106100000000000000e+04
2.096500000000000000e+04
2.102900000000000000e+04
2.109300000000000000e+04
2.114100000000000000e+04
2.117300000000000000e+04
2.109300000000000000e+04
2.094900000000000000e+04
2.088500000000000000e+04
2.067700000000000000e+04
2.053300000000000000e+04
2.046800000000000000e+04
2.040400000000000000e+04
2.026000000000000000e+04
2.014800000000000000e+04
2.011600000000000000e+04
2.014800000000000000e+04
2.029200000000000000e+04
2.037200000000000000e+04
2.043600000000000000e+04
2.053300000000000000e+04
2.064500000000000000e+04
2.067700000000000000e+04
2.053300000000000000e+04
2.048500000000000000e+04
2.062900000000000000e+04
2.088500000000000000e+04
2.112500000000000000e+04
2.128500000000000000e+04
2.130100000000000000e+04
2.128500000000000000e+04
2.115700000000000000e+04
2.096500000000000000e+04
2.080500000000000000e+04
2.062900000000000000e+04
2.046800000000000000e+04
2.037200000000000000e+04
2.029200000000000000e+04
2.011600000000000000e+04
1.994000000000000000e+04
1.987600000000000000e+04
1.974800000000000000e+04
1.962000000000000000e+04
1.941200000000000000e+04
1.928400000000000000e+04
1.914000000000000000e+04
1.907600000000000000e+04
1.904400000000000000e+04
1.901200000000000000e+04
1.909200000000000000e+04
1.907600000000000000e+04
1.899600000000000000e+04
1.883600000000000000e+04
1.872400000000000000e+04
1.870800000000000000e+04
1.882000000000000000e+04
1.890000000000000000e+04
1.890000000000000000e+04
1.885200000000000000e+04
1.901200000000000000e+04
1.910800000000000000e+04
1.907600000000000000e+04
1.909200000000000000e+04
1.907600000000000000e+04
1.896400000000000000e+04
1.891600000000000000e+04
1.883600000000000000e+04
1.877200000000000000e+04
1.874000000000000000e+04
1.856400000000000000e+04
1.840400000000000000e+04
1.834000000000000000e+04
1.818000000000000000e+04
1.819600000000000000e+04
1.822800000000000000e+04
1.834000000000000000e+04
1.821200000000000000e+04
1.808400000000000000e+04
1.794000000000000000e+04
1.786000000000000000e+04
1.786000000000000000e+04
1.795600000000000000e+04
1.800400000000000000e+04
1.808400000000000000e+04
1.800400000000000000e+04
1.798800000000000000e+04
1.827600000000000000e+04
1.874000000000000000e+04
1.917200000000000000e+04
1.947600000000000000e+04
1.952400000000000000e+04
1.938000000000000000e+04
1.925200000000000000e+04
1.923600000000000000e+04
1.931600000000000000e+04
1.942800000000000000e+04
1.954000000000000000e+04
1.958800000000000000e+04
1.950800000000000000e+04
1.941200000000000000e+04
1.933200000000000000e+04
1.936400000000000000e+04
1.936400000000000000e+04
1.923600000000000000e+04
1.925200000000000000e+04
1.944400000000000000e+04
1.955600000000000000e+04
1.965200000000000000e+04
1.997200000000000000e+04
2.056500000000000000e+04
2.086900000000000000e+04
2.104500000000000000e+04
2.104500000000000000e+04
2.094900000000000000e+04
2.096500000000000000e+04
2.133300000000000000e+04
2.192500000000000000e+04
2.248500000000000000e+04
2.282100000000000000e+04
2.283700000000000000e+04
2.267700000000000000e+04
2.250100000000000000e+04
2.227700000000000000e+04
2.205300000000000000e+04
2.170100000000000000e+04
2.149300000000000000e+04
2.138100000000000000e+04
2.123700000000000000e+04
2.122100000000000000e+04
2.130100000000000000e+04
2.130100000000000000e+04
2.117300000000000000e+04
2.099700000000000000e+04
2.082100000000000000e+04
2.067700000000000000e+04
2.056500000000000000e+04
2.027600000000000000e+04
2.019600000000000000e+04
2.029200000000000000e+04
2.046800000000000000e+04
2.062900000000000000e+04
2.070900000000000000e+04
2.075700000000000000e+04
2.077300000000000000e+04
2.067700000000000000e+04
2.077300000000000000e+04
2.104500000000000000e+04
2.117300000000000000e+04
2.109300000000000000e+04
2.096500000000000000e+04
2.085300000000000000e+04
2.069300000000000000e+04
2.058100000000000000e+04
2.056500000000000000e+04
2.061300000000000000e+04
2.070900000000000000e+04
2.083700000000000000e+04
2.074100000000000000e+04
2.056500000000000000e+04
2.043600000000000000e+04
2.030800000000000000e+04
2.016400000000000000e+04
1.998800000000000000e+04
1.979600000000000000e+04
1.963600000000000000e+04
1.952400000000000000e+04
1.946000000000000000e+04
1.946000000000000000e+04
1.949200000000000000e+04
1.952400000000000000e+04
1.957200000000000000e+04
1.965200000000000000e+04
1.973200000000000000e+04
1.984400000000000000e+04
1.984400000000000000e+04
1.979600000000000000e+04
1.973200000000000000e+04
1.963600000000000000e+04
1.950800000000000000e+04
1.949200000000000000e+04
1.955600000000000000e+04
1.954000000000000000e+04
1.942800000000000000e+04
1.941200000000000000e+04
1.936400000000000000e+04
1.928400000000000000e+04
1.930000000000000000e+04
1.944400000000000000e+04
1.960400000000000000e+04
1.971600000000000000e+04
1.984400000000000000e+04
1.978000000000000000e+04
1.966800000000000000e+04
1.963600000000000000e+04
1.952400000000000000e+04
1.938000000000000000e+04
1.933200000000000000e+04
1.934800000000000000e+04
1.933200000000000000e+04
1.933200000000000000e+04
1.946000000000000000e+04
1.963600000000000000e+04
1.963600000000000000e+04
1.966800000000000000e+04
1.973200000000000000e+04
1.962000000000000000e+04
1.952400000000000000e+04
1.974800000000000000e+04
2.014800000000000000e+04
2.048500000000000000e+04
2.062900000000000000e+04
2.054900000000000000e+04
2.038800000000000000e+04
2.026000000000000000e+04
2.013200000000000000e+04
2.000400000000000000e+04
1.944400000000000000e+04
1.926800000000000000e+04
1.914000000000000000e+04
1.899600000000000000e+04
1.888400000000000000e+04
1.886800000000000000e+04
1.878800000000000000e+04
1.861200000000000000e+04
1.843600000000000000e+04
1.826000000000000000e+04
1.811600000000000000e+04
1.813200000000000000e+04
1.818000000000000000e+04
1.810000000000000000e+04
1.797200000000000000e+04
1.786000000000000000e+04
1.771600000000000000e+04
1.766800000000000000e+04
1.766800000000000000e+04
1.768400000000000000e+04
1.768400000000000000e+04
1.774800000000000000e+04
1.765200000000000000e+04
1.754000000000000000e+04
1.746000000000000000e+04
1.749200000000000000e+04
1.754000000000000000e+04
1.742800000000000000e+04
1.731600000000000000e+04
1.717200000000000000e+04
1.706000000000000000e+04
1.698000000000000000e+04
1.694800000000000000e+04
1.693200000000000000e+04
1.690000000000000000e+04
1.683600000000000000e+04
1.670800000000000000e+04
1.659600000000000000e+04
1.645200000000000000e+04
1.633900000000000000e+04
1.622700000000000000e+04
1.609900000000000000e+04
1.601900000000000000e+04
1.601900000000000000e+04
1.589100000000000000e+04
1.579500000000000000e+04
1.566700000000000000e+04
1.560300000000000000e+04
1.565100000000000000e+04
1.585900000000000000e+04
1.601900000000000000e+04
1.609900000000000000e+04
1.598700000000000000e+04
1.584300000000000000e+04
1.577900000000000000e+04
1.577900000000000000e+04
1.577900000000000000e+04
1.582700000000000000e+04
1.584300000000000000e+04
1.577900000000000000e+04
1.565100000000000000e+04
1.565100000000000000e+04
1.569900000000000000e+04
1.568300000000000000e+04
1.558700000000000000e+04
1.568300000000000000e+04
1.568300000000000000e+04
1.581100000000000000e+04
1.627500000000000000e+04
1.690000000000000000e+04
1.754000000000000000e+04
1.795600000000000000e+04
1.808400000000000000e+04
1.797200000000000000e+04
1.805200000000000000e+04
1.832400000000000000e+04
1.859600000000000000e+04
1.869200000000000000e+04
1.864400000000000000e+04
1.861200000000000000e+04
1.856400000000000000e+04
1.840400000000000000e+04
1.834000000000000000e+04
1.830800000000000000e+04
1.830800000000000000e+04
1.826000000000000000e+04
1.819600000000000000e+04
1.802000000000000000e+04
1.794000000000000000e+04
1.782800000000000000e+04
1.781200000000000000e+04
1.781200000000000000e+04
1.779600000000000000e+04
1.771600000000000000e+04
1.758800000000000000e+04
1.742800000000000000e+04
1.730000000000000000e+04
1.715600000000000000e+04
1.699600000000000000e+04
1.683600000000000000e+04
1.669200000000000000e+04
1.661200000000000000e+04
1.638800000000000000e+04
1.642000000000000000e+04
1.638800000000000000e+04
1.624300000000000000e+04
1.614700000000000000e+04
1.606700000000000000e+04
1.611500000000000000e+04
1.611500000000000000e+04
1.600300000000000000e+04
1.585900000000000000e+04
1.577900000000000000e+04
1.568300000000000000e+04
1.561900000000000000e+04
1.560300000000000000e+04
1.569900000000000000e+04
1.555500000000000000e+04
1.544300000000000000e+04
1.544300000000000000e+04
1.550700000000000000e+04
1.550700000000000000e+04
1.541100000000000000e+04
1.525100000000000000e+04
1.518700000000000000e+04
1.517100000000000000e+04
1.502700000000000000e+04
1.489900000000000000e+04
1.478700000000000000e+04
1.477100000000000000e+04
1.481900000000000000e+04
1.485100000000000000e+04
1.483500000000000000e+04
1.485100000000000000e+04
1.480300000000000000e+04
1.478700000000000000e+04
1.473900000000000000e+04
1.469100000000000000e+04
1.493100000000000000e+04
1.528300000000000000e+04
1.557100000000000000e+04
1.565100000000000000e+04
1.555500000000000000e+04
1.542700000000000000e+04
1.541100000000000000e+04
1.549100000000000000e+04
1.560300000000000000e+04
1.582700000000000000e+04
1.605100000000000000e+04
1.625900000000000000e+04
1.648400000000000000e+04
1.677200000000000000e+04
1.698000000000000000e+04
1.702800000000000000e+04
1.691600000000000000e+04
1.696400000000000000e+04
1.718800000000000000e+04
1.736400000000000000e+04
1.746000000000000000e+04
1.754000000000000000e+04
1.762000000000000000e+04
1.765200000000000000e+04
1.758800000000000000e+04
1.746000000000000000e+04
1.731600000000000000e+04
1.717200000000000000e+04
1.709200000000000000e+04
1.706000000000000000e+04
1.704400000000000000e+04
1.694800000000000000e+04
1.682000000000000000e+04
1.666000000000000000e+04
1.661200000000000000e+04
1.653200000000000000e+04
1.642000000000000000e+04
1.648400000000000000e+04
1.666000000000000000e+04
1.694800000000000000e+04
1.734800000000000000e+04
1.795600000000000000e+04
1.853200000000000000e+04
1.877200000000000000e+04
1.870800000000000000e+04
1.891600000000000000e+04
1.925200000000000000e+04
1.954000000000000000e+04
1.978000000000000000e+04
1.979600000000000000e+04
1.966800000000000000e+04
1.950800000000000000e+04
1.933200000000000000e+04
1.922000000000000000e+04
1.925200000000000000e+04
1.922000000000000000e+04
1.933200000000000000e+04
1.930000000000000000e+04
1.923600000000000000e+04
1.907600000000000000e+04
1.893200000000000000e+04
1.891600000000000000e+04
1.894800000000000000e+04
1.888400000000000000e+04
1.874000000000000000e+04
1.861200000000000000e+04
1.853200000000000000e+04
1.848400000000000000e+04
1.846800000000000000e+04
1.837200000000000000e+04
1.824400000000000000e+04
1.814800000000000000e+04
1.813200000000000000e+04
1.802000000000000000e+04
1.808400000000000000e+04
1.822800000000000000e+04
1.835600000000000000e+04
1.826000000000000000e+04
1.826000000000000000e+04
1.840400000000000000e+04
1.853200000000000000e+04
1.867600000000000000e+04
1.869200000000000000e+04
1.856400000000000000e+04
1.845200000000000000e+04
1.843600000000000000e+04
1.818000000000000000e+04
1.800400000000000000e+04
1.787600000000000000e+04
1.776400000000000000e+04
1.763600000000000000e+04
1.755600000000000000e+04
1.806800000000000000e+04
1.885200000000000000e+04
1.949200000000000000e+04
1.984400000000000000e+04
1.978000000000000000e+04
1.986000000000000000e+04
2.018000000000000000e+04
2.075700000000000000e+04
2.141300000000000000e+04
2.194100000000000000e+04
2.205300000000000000e+04
2.190900000000000000e+04
2.190900000000000000e+04
2.189300000000000000e+04
2.179700000000000000e+04
2.158900000000000000e+04
2.147700000000000000e+04
2.144500000000000000e+04
2.139700000000000000e+04
2.138100000000000000e+04
2.126900000000000000e+04
2.107700000000000000e+04
2.086900000000000000e+04
2.070900000000000000e+04
2.061300000000000000e+04
2.048500000000000000e+04
2.040400000000000000e+04
2.030800000000000000e+04
2.026000000000000000e+04
2.016400000000000000e+04
2.010000000000000000e+04
2.002000000000000000e+04
1.992400000000000000e+04
1.986000000000000000e+04
1.987600000000000000e+04
1.984400000000000000e+04
1.971600000000000000e+04
1.955600000000000000e+04
1.941200000000000000e+04
1.928400000000000000e+04
1.918800000000000000e+04
1.922000000000000000e+04
1.926800000000000000e+04
1.931600000000000000e+04
1.933200000000000000e+04
1.926800000000000000e+04
1.917200000000000000e+04
1.904400000000000000e+04
1.888400000000000000e+04
1.877200000000000000e+04
1.862800000000000000e+04
1.848400000000000000e+04
1.848400000000000000e+04
1.835600000000000000e+04
1.824400000000000000e+04
1.814800000000000000e+04
1.800400000000000000e+04
1.800400000000000000e+04
1.811600000000000000e+04
1.814800000000000000e+04
1.824400000000000000e+04
1.830800000000000000e+04
1.835600000000000000e+04
1.822800000000000000e+04
1.818000000000000000e+04
1.813200000000000000e+04
1.798800000000000000e+04
1.784400000000000000e+04
1.776400000000000000e+04
1.779600000000000000e+04
1.802000000000000000e+04
1.835600000000000000e+04
1.856400000000000000e+04
1.846800000000000000e+04
1.870800000000000000e+04
1.909200000000000000e+04
1.941200000000000000e+04
1.963600000000000000e+04
1.978000000000000000e+04
1.984400000000000000e+04
1.978000000000000000e+04
1.965200000000000000e+04
1.963600000000000000e+04
1.968400000000000000e+04
1.976400000000000000e+04
1.981200000000000000e+04
1.973200000000000000e+04
1.958800000000000000e+04
1.963600000000000000e+04
1.986000000000000000e+04
1.995600000000000000e+04
1.989200000000000000e+04
1.974800000000000000e+04
1.963600000000000000e+04
1.965200000000000000e+04
1.971600000000000000e+04
1.986000000000000000e+04
2.005200000000000000e+04
1.998800000000000000e+04
1.992400000000000000e+04
1.998800000000000000e+04
1.998800000000000000e+04
1.994000000000000000e+04
1.979600000000000000e+04
1.966800000000000000e+04
1.968400000000000000e+04
1.976400000000000000e+04
1.981200000000000000e+04
1.970000000000000000e+04
1.934800000000000000e+04
1.934800000000000000e+04
1.922000000000000000e+04
1.918800000000000000e+04
1.923600000000000000e+04
1.936400000000000000e+04
1.949200000000000000e+04
1.952400000000000000e+04
1.947600000000000000e+04
1.938000000000000000e+04
1.922000000000000000e+04
1.899600000000000000e+04
1.906000000000000000e+04
1.907600000000000000e+04
1.912400000000000000e+04
1.915600000000000000e+04
1.917200000000000000e+04
1.909200000000000000e+04
1.901200000000000000e+04
1.894800000000000000e+04
1.885200000000000000e+04
1.885200000000000000e+04
1.883600000000000000e+04
1.866000000000000000e+04
1.851600000000000000e+04
1.832400000000000000e+04
1.821200000000000000e+04
1.813200000000000000e+04
1.808400000000000000e+04
1.795600000000000000e+04
1.787600000000000000e+04
1.795600000000000000e+04
1.806800000000000000e+04
1.813200000000000000e+04
1.819600000000000000e+04
1.821200000000000000e+04
1.818000000000000000e+04
1.806800000000000000e+04
1.811600000000000000e+04
1.826000000000000000e+04
1.822800000000000000e+04
1.808400000000000000e+04
1.800400000000000000e+04
1.795600000000000000e+04
1.776400000000000000e+04
1.766800000000000000e+04
1.755600000000000000e+04
1.758800000000000000e+04
1.760400000000000000e+04
1.758800000000000000e+04
1.762000000000000000e+04
1.765200000000000000e+04
1.760400000000000000e+04
1.747600000000000000e+04
1.734800000000000000e+04
1.718800000000000000e+04
1.706000000000000000e+04
1.693200000000000000e+04
1.678800000000000000e+04
1.667600000000000000e+04
1.653200000000000000e+04
1.640400000000000000e+04
1.629100000000000000e+04
1.617900000000000000e+04
1.603500000000000000e+04
1.605100000000000000e+04
1.624300000000000000e+04
1.654800000000000000e+04
1.680400000000000000e+04
1.698000000000000000e+04
1.707600000000000000e+04
1.701200000000000000e+04
1.699600000000000000e+04
1.702800000000000000e+04
1.698000000000000000e+04
1.686800000000000000e+04
1.677200000000000000e+04
1.670800000000000000e+04
1.672400000000000000e+04
1.685200000000000000e+04
1.717200000000000000e+04
1.750800000000000000e+04
1.747600000000000000e+04
1.755600000000000000e+04
1.784400000000000000e+04
1.810000000000000000e+04
1.826000000000000000e+04
1.832400000000000000e+04
1.821200000000000000e+04
1.826000000000000000e+04
1.840400000000000000e+04
1.856400000000000000e+04
1.856400000000000000e+04
1.835600000000000000e+04
1.821200000000000000e+04
1.806800000000000000e+04
1.794000000000000000e+04
1.776400000000000000e+04
1.770000000000000000e+04
1.762000000000000000e+04
1.776400000000000000e+04
1.826000000000000000e+04
1.870800000000000000e+04
1.890000000000000000e+04
1.888400000000000000e+04
1.874000000000000000e+04
1.861200000000000000e+04
1.850000000000000000e+04
1.845200000000000000e+04
1.832400000000000000e+04
1.818000000000000000e+04
1.805200000000000000e+04
1.795600000000000000e+04
1.787600000000000000e+04
1.778000000000000000e+04
1.765200000000000000e+04
1.749200000000000000e+04
1.734800000000000000e+04
1.723600000000000000e+04
1.723600000000000000e+04
1.726800000000000000e+04
1.733200000000000000e+04
1.738000000000000000e+04
1.746000000000000000e+04
1.755600000000000000e+04
1.770000000000000000e+04
1.768400000000000000e+04
1.763600000000000000e+04
1.758800000000000000e+04
1.747600000000000000e+04
1.739600000000000000e+04
1.742800000000000000e+04
1.747600000000000000e+04
1.754000000000000000e+04
1.762000000000000000e+04
1.763600000000000000e+04
1.747600000000000000e+04
1.754000000000000000e+04
1.754000000000000000e+04
1.742800000000000000e+04
1.731600000000000000e+04
1.720400000000000000e+04
1.720400000000000000e+04
1.728400000000000000e+04
1.734800000000000000e+04
1.725200000000000000e+04
1.712400000000000000e+04
1.699600000000000000e+04
1.694800000000000000e+04
1.690000000000000000e+04
1.677200000000000000e+04
1.661200000000000000e+04
1.645200000000000000e+04
1.630700000000000000e+04
1.616300000000000000e+04
1.606700000000000000e+04
1.603500000000000000e+04
1.595500000000000000e+04
1.581100000000000000e+04
1.566700000000000000e+04
1.553900000000000000e+04
1.541100000000000000e+04
1.534700000000000000e+04
1.537900000000000000e+04
1.560300000000000000e+04
1.605100000000000000e+04
1.650000000000000000e+04
1.662800000000000000e+04
1.648400000000000000e+04
1.643600000000000000e+04
1.666000000000000000e+04
1.693200000000000000e+04
1.714000000000000000e+04
1.723600000000000000e+04
1.736400000000000000e+04
1.754000000000000000e+04
1.766800000000000000e+04
1.781200000000000000e+04
1.789200000000000000e+04
1.787600000000000000e+04
1.774800000000000000e+04
1.760400000000000000e+04
1.757200000000000000e+04
1.794000000000000000e+04
1.816400000000000000e+04
1.830800000000000000e+04
1.821200000000000000e+04
1.816400000000000000e+04
1.816400000000000000e+04
1.802000000000000000e+04
1.787600000000000000e+04
1.782800000000000000e+04
1.776400000000000000e+04
1.770000000000000000e+04
1.770000000000000000e+04
1.774800000000000000e+04
1.774800000000000000e+04
1.768400000000000000e+04
1.731600000000000000e+04
1.722000000000000000e+04
1.717200000000000000e+04
1.715600000000000000e+04
1.723600000000000000e+04
1.754000000000000000e+04
1.787600000000000000e+04
1.821200000000000000e+04
1.842000000000000000e+04
1.853200000000000000e+04
1.846800000000000000e+04
1.858000000000000000e+04
1.874000000000000000e+04
1.888400000000000000e+04
1.891600000000000000e+04
1.875600000000000000e+04
1.875600000000000000e+04
1.891600000000000000e+04
1.893200000000000000e+04
1.877200000000000000e+04
1.874000000000000000e+04
1.882000000000000000e+04
1.898000000000000000e+04
1.904400000000000000e+04
1.898000000000000000e+04
1.885200000000000000e+04
1.875600000000000000e+04
1.869200000000000000e+04
1.862800000000000000e+04
1.853200000000000000e+04
1.843600000000000000e+04
1.830800000000000000e+04
1.821200000000000000e+04
1.803600000000000000e+04
1.792400000000000000e+04
1.776400000000000000e+04
1.770000000000000000e+04
1.768400000000000000e+04
1.770000000000000000e+04
1.771600000000000000e+04
1.762000000000000000e+04
1.766800000000000000e+04
1.766800000000000000e+04
1.757200000000000000e+04
1.744400000000000000e+04
1.742800000000000000e+04
1.746000000000000000e+04
1.760400000000000000e+04
1.774800000000000000e+04
1.789200000000000000e+04
1.790800000000000000e+04
1.776400000000000000e+04
1.770000000000000000e+04
1.771600000000000000e+04
1.779600000000000000e+04
1.773200000000000000e+04
1.757200000000000000e+04
1.752400000000000000e+04
1.741200000000000000e+04
1.736400000000000000e+04
1.734800000000000000e+04
1.734800000000000000e+04
1.725200000000000000e+04
1.714000000000000000e+04
1.699600000000000000e+04
1.688400000000000000e+04
1.677200000000000000e+04
1.661200000000000000e+04
1.658000000000000000e+04
1.661200000000000000e+04
1.666000000000000000e+04
1.667600000000000000e+04
1.654800000000000000e+04
1.642000000000000000e+04
1.627500000000000000e+04
1.621100000000000000e+04
1.622700000000000000e+04
1.627500000000000000e+04
1.633900000000000000e+04
1.646800000000000000e+04
1.658000000000000000e+04
1.654800000000000000e+04
1.648400000000000000e+04
1.650000000000000000e+04
1.654800000000000000e+04
1.645200000000000000e+04
1.642000000000000000e+04
1.651600000000000000e+04
1.680400000000000000e+04
1.715600000000000000e+04
1.742800000000000000e+04
1.746000000000000000e+04
1.739600000000000000e+04
1.720400000000000000e+04
1.704400000000000000e+04
1.691600000000000000e+04
1.680400000000000000e+04
1.672400000000000000e+04
1.659600000000000000e+04
1.659600000000000000e+04
1.667600000000000000e+04
1.678800000000000000e+04
1.682000000000000000e+04
1.675600000000000000e+04
1.661200000000000000e+04
1.646800000000000000e+04
1.632300000000000000e+04
1.619500000000000000e+04
1.614700000000000000e+04
1.614700000000000000e+04
1.624300000000000000e+04
1.654800000000000000e+04
1.694800000000000000e+04
1.731600000000000000e+04
1.763600000000000000e+04
1.766800000000000000e+04
2.037200000000000000e+04
2.080500000000000000e+04
2.074100000000000000e+04
2.053300000000000000e+04
2.040400000000000000e+04
2.026000000000000000e+04
2.013200000000000000e+04
2.002000000000000000e+04
1.990800000000000000e+04
1.981200000000000000e+04
1.974800000000000000e+04
1.966800000000000000e+04
1.960400000000000000e+04
1.939600000000000000e+04
1.974800000000000000e+04
2.030800000000000000e+04
2.080500000000000000e+04
2.122100000000000000e+04
2.118900000000000000e+04
2.133300000000000000e+04
2.170100000000000000e+04
2.203700000000000000e+04
2.210100000000000000e+04
2.198900000000000000e+04
2.182900000000000000e+04
2.166900000000000000e+04
2.149300000000000000e+04
2.131700000000000000e+04
2.114100000000000000e+04
2.098100000000000000e+04
2.090100000000000000e+04
2.083700000000000000e+04
2.091700000000000000e+04
2.091700000000000000e+04
2.083700000000000000e+04
2.074100000000000000e+04
2.059700000000000000e+04
2.043600000000000000e+04
2.032400000000000000e+04
2.024400000000000000e+04
2.014800000000000000e+04
2.003600000000000000e+04
1.995600000000000000e+04
1.994000000000000000e+04
2.021200000000000000e+04
2.045200000000000000e+04
2.050100000000000000e+04
2.043600000000000000e+04
2.061300000000000000e+04
2.078900000000000000e+04
2.083700000000000000e+04
2.077300000000000000e+04
2.061300000000000000e+04
2.054900000000000000e+04
2.053300000000000000e+04
2.054900000000000000e+04
2.045200000000000000e+04
2.030800000000000000e+04
2.019600000000000000e+04
2.011600000000000000e+04
1.997200000000000000e+04
1.987600000000000000e+04
1.990800000000000000e+04
2.003600000000000000e+04
2.010000000000000000e+04
2.006800000000000000e+04
1.994000000000000000e+04
1.978000000000000000e+04
1.968400000000000000e+04
1.957200000000000000e+04
1.941200000000000000e+04
1.938000000000000000e+04
1.941200000000000000e+04
1.941200000000000000e+04
1.928400000000000000e+04
1.915600000000000000e+04
1.901200000000000000e+04
1.894800000000000000e+04
1.886800000000000000e+04
1.878800000000000000e+04
1.886800000000000000e+04
1.899600000000000000e+04
1.890000000000000000e+04
1.891600000000000000e+04
1.920400000000000000e+04
1.947600000000000000e+04
1.954000000000000000e+04
1.954000000000000000e+04
1.954000000000000000e+04
1.944400000000000000e+04
1.928400000000000000e+04
1.918800000000000000e+04
1.912400000000000000e+04
1.910800000000000000e+04
1.899600000000000000e+04
1.885200000000000000e+04
1.874000000000000000e+04
1.866000000000000000e+04
1.859600000000000000e+04
1.853200000000000000e+04
1.850000000000000000e+04
1.834000000000000000e+04
1.832400000000000000e+04
1.824400000000000000e+04
1.811600000000000000e+04
1.794000000000000000e+04
1.779600000000000000e+04
1.766800000000000000e+04
1.755600000000000000e+04
1.746000000000000000e+04
1.741200000000000000e+04
1.731600000000000000e+04
1.725200000000000000e+04
1.738000000000000000e+04
1.755600000000000000e+04
1.758800000000000000e+04
1.746000000000000000e+04
1.736400000000000000e+04
1.738000000000000000e+04
1.747600000000000000e+04
1.758800000000000000e+04
1.763600000000000000e+04
1.768400000000000000e+04
1.774800000000000000e+04
1.782800000000000000e+04
1.730000000000000000e+04
1.736400000000000000e+04
1.766800000000000000e+04
1.786000000000000000e+04
1.781200000000000000e+04
1.782800000000000000e+04
1.813200000000000000e+04
1.862800000000000000e+04
1.870800000000000000e+04
1.867600000000000000e+04
1.859600000000000000e+04
1.838800000000000000e+04
1.824400000000000000e+04
1.808400000000000000e+04
1.797200000000000000e+04
1.784400000000000000e+04
1.770000000000000000e+04
1.757200000000000000e+04
1.741200000000000000e+04
1.725200000000000000e+04
1.715600000000000000e+04
1.710800000000000000e+04
1.723600000000000000e+04
1.739600000000000000e+04
1.746000000000000000e+04
1.736400000000000000e+04
1.747600000000000000e+04
1.760400000000000000e+04
1.770000000000000000e+04
1.763600000000000000e+04
1.750800000000000000e+04
1.749200000000000000e+04
1.750800000000000000e+04
1.750800000000000000e+04
1.763600000000000000e+04
1.779600000000000000e+04
1.798800000000000000e+04
1.810000000000000000e+04
1.798800000000000000e+04
1.800400000000000000e+04
1.813200000000000000e+04
1.810000000000000000e+04
1.802000000000000000e+04
1.818000000000000000e+04
1.822800000000000000e+04
1.810000000000000000e+04
1.798800000000000000e+04
1.787600000000000000e+04
1.778000000000000000e+04
1.771600000000000000e+04
1.771600000000000000e+04
1.776400000000000000e+04
1.784400000000000000e+04
1.784400000000000000e+04
1.782800000000000000e+04
1.782800000000000000e+04
1.782800000000000000e+04
1.773200000000000000e+04
1.760400000000000000e+04
1.752400000000000000e+04
1.749200000000000000e+04
1.749200000000000000e+04
1.749200000000000000e+04
1.744400000000000000e+04
1.731600000000000000e+04
1.723600000000000000e+04
1.723600000000000000e+04
1.720400000000000000e+04
1.707600000000000000e+04
1.691600000000000000e+04
1.678800000000000000e+04
1.664400000000000000e+04
1.653200000000000000e+04
1.642000000000000000e+04
1.632300000000000000e+04
1.624300000000000000e+04
1.613100000000000000e+04
1.595500000000000000e+04
1.582700000000000000e+04
1.568300000000000000e+04
1.565100000000000000e+04
1.569900000000000000e+04
1.584300000000000000e+04
1.600300000000000000e+04
1.608300000000000000e+04
1.605100000000000000e+04
1.606700000000000000e+04
1.609900000000000000e+04
1.608300000000000000e+04
1.597100000000000000e+04
1.597100000000000000e+04
1.613100000000000000e+04
1.617900000000000000e+04
1.613100000000000000e+04
1.622700000000000000e+04
1.643600000000000000e+04
1.656400000000000000e+04
1.648400000000000000e+04
1.632300000000000000e+04
1.625900000000000000e+04
1.625900000000000000e+04
1.622700000000000000e+04
1.613100000000000000e+04
1.600300000000000000e+04
1.584300000000000000e+04
1.574700000000000000e+04
1.568300000000000000e+04
1.566700000000000000e+04
1.568300000000000000e+04
1.576300000000000000e+04
1.579500000000000000e+04
1.566700000000000000e+04
1.558700000000000000e+04
1.557100000000000000e+04
1.565100000000000000e+04
1.563500000000000000e+04
1.550700000000000000e+04
1.536300000000000000e+04
1.523500000000000000e+04
1.510700000000000000e+04
1.501100000000000000e+04
1.489900000000000000e+04
1.477100000000000000e+04
1.472300000000000000e+04
1.465900000000000000e+04
1.454700000000000000e+04
1.441900000000000000e+04
1.441900000000000000e+04
1.454700000000000000e+04
1.456300000000000000e+04
1.446700000000000000e+04
1.443500000000000000e+04
1.462700000000000000e+04
1.489900000000000000e+04
1.513900000000000000e+04
1.525100000000000000e+04
1.528300000000000000e+04
1.517100000000000000e+04
1.523500000000000000e+04
1.541100000000000000e+04
1.544300000000000000e+04
1.541100000000000000e+04
1.528300000000000000e+04
1.518700000000000000e+04
1.505900000000000000e+04
1.493100000000000000e+04
1.478700000000000000e+04
1.472300000000000000e+04
1.472300000000000000e+04
1.475500000000000000e+04
1.480300000000000000e+04
1.485100000000000000e+04
1.489900000000000000e+04
1.499500000000000000e+04
1.504300000000000000e+04
1.497900000000000000e+04
1.502700000000000000e+04
1.520300000000000000e+04
1.545900000000000000e+04
1.579500000000000000e+04
1.605100000000000000e+04
1.616300000000000000e+04
1.625900000000000000e+04
1.632300000000000000e+04
1.630700000000000000e+04
1.619500000000000000e+04
1.608300000000000000e+04
1.593900000000000000e+04
1.579500000000000000e+04
1.574700000000000000e+04
1.577900000000000000e+04
1.577900000000000000e+04
1.582700000000000000e+04
1.581100000000000000e+04
1.576300000000000000e+04
1.579500000000000000e+04
1.590700000000000000e+04
1.614700000000000000e+04
1.621100000000000000e+04
1.621100000000000000e+04
1.606700000000000000e+04
1.605100000000000000e+04
1.609900000000000000e+04
1.616300000000000000e+04
1.617900000000000000e+04
1.619500000000000000e+04
1.613100000000000000e+04
1.600300000000000000e+04
1.587500000000000000e+04
1.587500000000000000e+04
1.587500000000000000e+04
1.587500000000000000e+04
1.600300000000000000e+04
1.611500000000000000e+04
1.601900000000000000e+04
1.613100000000000000e+04
1.633900000000000000e+04
1.640400000000000000e+04
1.632300000000000000e+04
1.654800000000000000e+04
1.677200000000000000e+04
1.699600000000000000e+04
1.712400000000000000e+04
1.702800000000000000e+04
1.691600000000000000e+04
1.693200000000000000e+04
1.704400000000000000e+04
1.722000000000000000e+04
1.747600000000000000e+04
1.770000000000000000e+04
1.786000000000000000e+04
1.798800000000000000e+04
1.810000000000000000e+04
1.808400000000000000e+04
1.790800000000000000e+04
1.770000000000000000e+04
1.755600000000000000e+04
1.742800000000000000e+04
1.739600000000000000e+04
1.747600000000000000e+04
1.754000000000000000e+04
1.757200000000000000e+04
1.749200000000000000e+04
1.739600000000000000e+04
1.731600000000000000e+04
1.733200000000000000e+04
1.738000000000000000e+04
1.741200000000000000e+04
1.730000000000000000e+04
1.718800000000000000e+04
1.707600000000000000e+04
1.698000000000000000e+04
1.686800000000000000e+04
1.680400000000000000e+04
1.669200000000000000e+04
1.683600000000000000e+04
1.698000000000000000e+04
1.690000000000000000e+04
1.699600000000000000e+04
1.739600000000000000e+04
1.789200000000000000e+04
1.814800000000000000e+04
1.826000000000000000e+04
1.830800000000000000e+04
1.826000000000000000e+04
1.813200000000000000e+04
1.798800000000000000e+04
1.781200000000000000e+04
1.768400000000000000e+04
1.760400000000000000e+04
1.762000000000000000e+04
1.773200000000000000e+04
1.782800000000000000e+04
1.792400000000000000e+04
1.802000000000000000e+04
1.806800000000000000e+04
1.795600000000000000e+04
1.797200000000000000e+04
1.800400000000000000e+04
1.795600000000000000e+04
1.782800000000000000e+04
1.770000000000000000e+04
1.750800000000000000e+04
1.741200000000000000e+04
1.725200000000000000e+04
1.714000000000000000e+04
1.696400000000000000e+04
1.698000000000000000e+04
1.698000000000000000e+04
1.696400000000000000e+04
1.694800000000000000e+04
1.686800000000000000e+04
1.670800000000000000e+04
1.656400000000000000e+04
1.654800000000000000e+04
1.656400000000000000e+04
1.651600000000000000e+04
1.643600000000000000e+04
1.632300000000000000e+04
1.632300000000000000e+04
1.643600000000000000e+04
1.667600000000000000e+04
1.706000000000000000e+04
1.757200000000000000e+04
1.784400000000000000e+04
1.773200000000000000e+04
1.760400000000000000e+04
1.746000000000000000e+04
1.731600000000000000e+04
1.717200000000000000e+04
1.699600000000000000e+04
1.690000000000000000e+04
1.701200000000000000e+04
1.747600000000000000e+04
1.808400000000000000e+04
1.872400000000000000e+04
1.912400000000000000e+04
1.920400000000000000e+04
1.910800000000000000e+04
1.894800000000000000e+04
1.877200000000000000e+04
1.861200000000000000e+04
1.846800000000000000e+04
1.830800000000000000e+04
1.814800000000000000e+04
1.798800000000000000e+04
1.782800000000000000e+04
1.771600000000000000e+04
1.758800000000000000e+04
1.746000000000000000e+04
1.736400000000000000e+04
1.738000000000000000e+04
1.738000000000000000e+04
1.741200000000000000e+04
1.744400000000000000e+04
1.744400000000000000e+04
1.738000000000000000e+04
1.730000000000000000e+04
1.715600000000000000e+04
1.702800000000000000e+04
1.694800000000000000e+04
1.690000000000000000e+04
1.682000000000000000e+04
1.672400000000000000e+04
1.674000000000000000e+04
1.678800000000000000e+04
1.678800000000000000e+04
1.680400000000000000e+04
1.691600000000000000e+04
1.699600000000000000e+04
1.693200000000000000e+04
1.682000000000000000e+04
1.690000000000000000e+04
1.702800000000000000e+04
1.709200000000000000e+04
1.709200000000000000e+04
1.707600000000000000e+04
1.710800000000000000e+04
1.707600000000000000e+04
1.795600000000000000e+04
1.797200000000000000e+04
1.794000000000000000e+04
1.787600000000000000e+04
1.774800000000000000e+04
1.762000000000000000e+04
1.746000000000000000e+04
1.734800000000000000e+04
1.725200000000000000e+04
1.722000000000000000e+04
1.720400000000000000e+04
1.744400000000000000e+04
1.773200000000000000e+04
1.794000000000000000e+04
1.795600000000000000e+04
1.781200000000000000e+04
1.773200000000000000e+04
1.765200000000000000e+04
1.754000000000000000e+04
1.742800000000000000e+04
1.741200000000000000e+04
1.739600000000000000e+04
1.741200000000000000e+04
1.741200000000000000e+04
1.734800000000000000e+04
1.725200000000000000e+04
1.714000000000000000e+04
1.707600000000000000e+04
1.693200000000000000e+04
1.678800000000000000e+04
1.664400000000000000e+04
1.648400000000000000e+04
1.638800000000000000e+04
1.630700000000000000e+04
1.622700000000000000e+04
1.617900000000000000e+04
1.608300000000000000e+04
1.595500000000000000e+04
1.585900000000000000e+04
1.571500000000000000e+04
1.558700000000000000e+04
1.544300000000000000e+04
1.539500000000000000e+04
1.541100000000000000e+04
1.545900000000000000e+04
1.557100000000000000e+04
1.571500000000000000e+04
1.577900000000000000e+04
1.568300000000000000e+04
1.574700000000000000e+04
1.590700000000000000e+04
1.605100000000000000e+04
1.595500000000000000e+04
1.585900000000000000e+04
1.579500000000000000e+04
1.576300000000000000e+04
1.574700000000000000e+04
1.593900000000000000e+04
1.632300000000000000e+04
1.674000000000000000e+04
1.698000000000000000e+04
1.688400000000000000e+04
1.693200000000000000e+04
1.709200000000000000e+04
1.720400000000000000e+04
1.736400000000000000e+04
1.755600000000000000e+04
1.765200000000000000e+04
1.766800000000000000e+04
1.758800000000000000e+04
1.754000000000000000e+04
1.760400000000000000e+04
1.773200000000000000e+04
1.787600000000000000e+04
1.805200000000000000e+04
1.810000000000000000e+04
1.797200000000000000e+04
1.787600000000000000e+04
1.789200000000000000e+04
1.802000000000000000e+04
1.829200000000000000e+04
1.859600000000000000e+04
1.890000000000000000e+04
1.938000000000000000e+04
1.981200000000000000e+04
2.005200000000000000e+04
1.998800000000000000e+04
2.027600000000000000e+04
2.067700000000000000e+04
2.093300000000000000e+04
2.109300000000000000e+04
2.115700000000000000e+04
2.109300000000000000e+04
2.070900000000000000e+04
2.051700000000000000e+04
2.037200000000000000e+04
2.027600000000000000e+04
2.027600000000000000e+04
2.024400000000000000e+04
1.994000000000000000e+04
1.966800000000000000e+04
1.947600000000000000e+04
1.930000000000000000e+04
1.920400000000000000e+04
1.909200000000000000e+04
1.893200000000000000e+04
1.882000000000000000e+04
1.878800000000000000e+04
1.883600000000000000e+04
1.898000000000000000e+04
1.928400000000000000e+04
1.962000000000000000e+04
1.992400000000000000e+04
2.002000000000000000e+04
1.992400000000000000e+04
1.986000000000000000e+04
1.990800000000000000e+04
2.000400000000000000e+04
2.014800000000000000e+04
2.034000000000000000e+04
2.050100000000000000e+04
2.061300000000000000e+04
2.051700000000000000e+04
2.046800000000000000e+04
2.051700000000000000e+04
2.048500000000000000e+04
2.046800000000000000e+04
2.046800000000000000e+04
2.048500000000000000e+04
2.048500000000000000e+04
2.038800000000000000e+04
2.019600000000000000e+04
2.006800000000000000e+04
1.998800000000000000e+04
2.002000000000000000e+04
2.005200000000000000e+04
2.008400000000000000e+04
2.013200000000000000e+04
2.016400000000000000e+04
2.016400000000000000e+04
2.010000000000000000e+04
2.002000000000000000e+04
1.992400000000000000e+04
1.989200000000000000e+04
1.986000000000000000e+04
1.971600000000000000e+04
1.968400000000000000e+04
1.960400000000000000e+04
1.941200000000000000e+04
1.925200000000000000e+04
1.910800000000000000e+04
1.896400000000000000e+04
1.883600000000000000e+04
1.877200000000000000e+04
1.869200000000000000e+04
1.853200000000000000e+04
1.840400000000000000e+04
1.834000000000000000e+04
1.830800000000000000e+04
1.819600000000000000e+04
1.814800000000000000e+04
1.819600000000000000e+04
1.821200000000000000e+04
1.819600000000000000e+04
1.814800000000000000e+04
1.810000000000000000e+04
1.794000000000000000e+04
1.787600000000000000e+04
1.774800000000000000e+04
1.782800000000000000e+04
1.789200000000000000e+04
1.778000000000000000e+04
1.781200000000000000e+04
1.789200000000000000e+04
1.798800000000000000e+04
1.787600000000000000e+04
1.771600000000000000e+04
1.757200000000000000e+04
1.742800000000000000e+04
1.728400000000000000e+04
1.710800000000000000e+04
1.696400000000000000e+04
1.683600000000000000e+04
1.678800000000000000e+04
1.669200000000000000e+04
1.656400000000000000e+04
1.643600000000000000e+04
1.646800000000000000e+04
1.653200000000000000e+04
1.659600000000000000e+04
1.666000000000000000e+04
1.674000000000000000e+04
1.680400000000000000e+04
1.682000000000000000e+04
1.683600000000000000e+04
1.685200000000000000e+04
1.682000000000000000e+04
1.677200000000000000e+04
1.670800000000000000e+04
1.659600000000000000e+04
1.646800000000000000e+04
1.658000000000000000e+04
1.677200000000000000e+04
1.690000000000000000e+04
1.718800000000000000e+04
1.757200000000000000e+04
1.782800000000000000e+04
1.782800000000000000e+04
1.771600000000000000e+04
1.768400000000000000e+04
1.776400000000000000e+04
1.797200000000000000e+04
1.824400000000000000e+04
1.845200000000000000e+04
1.853200000000000000e+04
1.848400000000000000e+04
1.835600000000000000e+04
1.819600000000000000e+04
1.805200000000000000e+04
1.789200000000000000e+04
1.773200000000000000e+04
1.763600000000000000e+04
1.755600000000000000e+04
1.747600000000000000e+04
1.731600000000000000e+04
1.718800000000000000e+04
1.706000000000000000e+04
1.690000000000000000e+04
1.678800000000000000e+04
1.664400000000000000e+04
1.648400000000000000e+04
1.633900000000000000e+04
1.619500000000000000e+04
1.613100000000000000e+04
1.605100000000000000e+04
1.600300000000000000e+04
1.595500000000000000e+04
1.574700000000000000e+04
1.576300000000000000e+04
1.589100000000000000e+04
1.592300000000000000e+04
1.581100000000000000e+04
1.577900000000000000e+04
1.568300000000000000e+04
1.557100000000000000e+04
1.544300000000000000e+04
1.541100000000000000e+04
1.544300000000000000e+04
1.544300000000000000e+04
1.544300000000000000e+04
1.531500000000000000e+04
1.523500000000000000e+04
1.529900000000000000e+04
1.544300000000000000e+04
1.560300000000000000e+04
1.574700000000000000e+04
1.584300000000000000e+04
1.579500000000000000e+04
1.569900000000000000e+04
1.569900000000000000e+04
1.561900000000000000e+04
1.589100000000000000e+04
1.603500000000000000e+04
1.605100000000000000e+04
1.595500000000000000e+04
1.601900000000000000e+04
1.608300000000000000e+04
1.617900000000000000e+04
1.625900000000000000e+04
1.617900000000000000e+04
1.617900000000000000e+04
1.632300000000000000e+04
1.645200000000000000e+04
1.645200000000000000e+04
1.606700000000000000e+04
1.601900000000000000e+04
1.595500000000000000e+04
1.598700000000000000e+04
1.595500000000000000e+04
1.593900000000000000e+04
1.587500000000000000e+04
1.589100000000000000e+04
1.579500000000000000e+04
1.574700000000000000e+04
1.566700000000000000e+04
1.558700000000000000e+04
1.545900000000000000e+04
1.541100000000000000e+04
1.544300000000000000e+04
1.545900000000000000e+04
1.533100000000000000e+04
1.523500000000000000e+04
1.515500000000000000e+04
1.518700000000000000e+04
1.523500000000000000e+04
1.525100000000000000e+04
1.513900000000000000e+04
1.505900000000000000e+04
1.505900000000000000e+04
1.509100000000000000e+04
1.499500000000000000e+04
1.499500000000000000e+04
1.489900000000000000e+04
1.483500000000000000e+04
1.478700000000000000e+04
1.473900000000000000e+04
1.477100000000000000e+04
1.489900000000000000e+04
1.494700000000000000e+04
1.486700000000000000e+04
1.473900000000000000e+04
1.462700000000000000e+04
1.454700000000000000e+04
1.448300000000000000e+04
1.430700000000000000e+04
1.417900000000000000e+04
1.408300000000000000e+04
1.397100000000000000e+04
1.384300000000000000e+04
1.374700000000000000e+04
1.369900000000000000e+04
1.357100000000000000e+04
1.350700000000000000e+04
1.352300000000000000e+04
1.344300000000000000e+04
1.336300000000000000e+04
1.326700000000000000e+04
1.328300000000000000e+04
1.333100000000000000e+04
1.341100000000000000e+04
1.345900000000000000e+04
1.339500000000000000e+04
1.329900000000000000e+04
1.321900000000000000e+04
1.315500000000000000e+04
1.312300000000000000e+04
1.321900000000000000e+04
1.334700000000000000e+04
1.334700000000000000e+04
1.325100000000000000e+04
1.313900000000000000e+04
1.310700000000000000e+04
1.309100000000000000e+04
1.301100000000000000e+04
1.294700000000000000e+04
1.294700000000000000e+04
1.302700000000000000e+04
1.297900000000000000e+04
1.289900000000000000e+04
1.283500000000000000e+04
1.294700000000000000e+04
1.307500000000000000e+04
1.315500000000000000e+04
1.320300000000000000e+04
1.318700000000000000e+04
1.309100000000000000e+04
1.307500000000000000e+04
1.337900000000000000e+04
1.350700000000000000e+04
1.350700000000000000e+04
1.345900000000000000e+04
1.337900000000000000e+04
1.336300000000000000e+04
1.331500000000000000e+04
1.323500000000000000e+04
1.313900000000000000e+04
1.299500000000000000e+04
1.289900000000000000e+04
1.278700000000000000e+04
1.275500000000000000e+04
1.275500000000000000e+04
1.272300000000000000e+04
1.259500000000000000e+04
1.251500000000000000e+04
1.246700000000000000e+04
1.248300000000000000e+04
1.254700000000000000e+04
1.269100000000000000e+04
1.275500000000000000e+04
1.273900000000000000e+04
1.264300000000000000e+04
1.259500000000000000e+04
1.249900000000000000e+04
1.248300000000000000e+04
1.254700000000000000e+04
1.249900000000000000e+04
1.243500000000000000e+04
1.230700000000000000e+04
1.221000000000000000e+04
1.211400000000000000e+04
1.209800000000000000e+04
1.203400000000000000e+04
1.197000000000000000e+04
1.200200000000000000e+04
1.219400000000000000e+04
1.240300000000000000e+04
1.256300000000000000e+04
1.267500000000000000e+04
1.265900000000000000e+04
1.254700000000000000e+04
1.251500000000000000e+04
1.257900000000000000e+04
1.265900000000000000e+04
1.272300000000000000e+04
1.269100000000000000e+04
1.241900000000000000e+04
1.232300000000000000e+04
1.224200000000000000e+04
1.232300000000000000e+04
1.246700000000000000e+04
1.256300000000000000e+04
1.256300000000000000e+04
1.246700000000000000e+04
1.237100000000000000e+04
1.240300000000000000e+04
1.248300000000000000e+04
1.257900000000000000e+04
1.251500000000000000e+04
1.262700000000000000e+04
1.275500000000000000e+04
1.280300000000000000e+04
1.272300000000000000e+04
1.280300000000000000e+04
1.293100000000000000e+04
1.299500000000000000e+04
1.297900000000000000e+04
1.286700000000000000e+04
1.281900000000000000e+04
1.272300000000000000e+04
1.270700000000000000e+04
1.275500000000000000e+04
1.285100000000000000e+04
1.288300000000000000e+04
1.283500000000000000e+04
1.277100000000000000e+04
1.277100000000000000e+04
1.278700000000000000e+04
1.278700000000000000e+04
1.275500000000000000e+04
1.269100000000000000e+04
1.280300000000000000e+04
1.301100000000000000e+04
1.310700000000000000e+04
1.305900000000000000e+04
1.296300000000000000e+04
1.296300000000000000e+04
1.302700000000000000e+04
1.312300000000000000e+04
1.313900000000000000e+04
1.307500000000000000e+04
1.296300000000000000e+04
1.285100000000000000e+04
1.273900000000000000e+04
1.267500000000000000e+04
1.262700000000000000e+04
1.273900000000000000e+04
1.283500000000000000e+04
1.309100000000000000e+04
1.331500000000000000e+04
1.352300000000000000e+04
1.369900000000000000e+04
1.382700000000000000e+04
1.377900000000000000e+04
1.392300000000000000e+04
1.440300000000000000e+04
1.486700000000000000e+04
1.512300000000000000e+04
1.520300000000000000e+04
1.517100000000000000e+04
1.513900000000000000e+04
1.504300000000000000e+04
1.493100000000000000e+04
1.491500000000000000e+04
1.499500000000000000e+04
1.499500000000000000e+04
1.502700000000000000e+04
1.504300000000000000e+04
1.491500000000000000e+04
1.480300000000000000e+04
1.469100000000000000e+04
1.464300000000000000e+04
1.465900000000000000e+04
1.464300000000000000e+04
1.459500000000000000e+04
1.446700000000000000e+04
1.435500000000000000e+04
1.433900000000000000e+04
1.425900000000000000e+04
1.417900000000000000e+04
1.413100000000000000e+04
1.401900000000000000e+04
1.408300000000000000e+04
1.421100000000000000e+04
1.432300000000000000e+04
1.446700000000000000e+04
1.456300000000000000e+04
1.451500000000000000e+04
1.438700000000000000e+04
1.432300000000000000e+04
1.440300000000000000e+04
1.449900000000000000e+04
1.456300000000000000e+04
1.453100000000000000e+04
1.446700000000000000e+04
1.435500000000000000e+04
1.421100000000000000e+04
1.413100000000000000e+04
1.430700000000000000e+04
1.435500000000000000e+04
1.424300000000000000e+04
1.422700000000000000e+04
1.433900000000000000e+04
1.446700000000000000e+04
1.446700000000000000e+04
1.437100000000000000e+04
1.438700000000000000e+04
1.441900000000000000e+04
1.435500000000000000e+04
1.427500000000000000e+04
1.429100000000000000e+04
1.416300000000000000e+04
1.435500000000000000e+04
1.461100000000000000e+04
1.472300000000000000e+04
1.465900000000000000e+04
1.456300000000000000e+04
1.448300000000000000e+04
1.433900000000000000e+04
1.424300000000000000e+04
1.417900000000000000e+04
1.408300000000000000e+04
1.395500000000000000e+04
1.385900000000000000e+04
1.373100000000000000e+04
1.361900000000000000e+04
1.357100000000000000e+04
1.345900000000000000e+04
1.342700000000000000e+04
1.334700000000000000e+04
1.345900000000000000e+04
1.360300000000000000e+04
1.368300000000000000e+04
1.363500000000000000e+04
1.349100000000000000e+04
1.337900000000000000e+04
1.331500000000000000e+04
1.323500000000000000e+04
1.313900000000000000e+04
1.310700000000000000e+04
1.309100000000000000e+04
1.313900000000000000e+04
1.320300000000000000e+04
1.325100000000000000e+04
1.323500000000000000e+04
1.312300000000000000e+04
1.299500000000000000e+04
1.289900000000000000e+04
1.283500000000000000e+04
1.281900000000000000e+04
1.286700000000000000e+04
1.299500000000000000e+04
1.315500000000000000e+04
1.331500000000000000e+04
1.326700000000000000e+04
1.318700000000000000e+04
1.317100000000000000e+04
1.315500000000000000e+04
1.331500000000000000e+04
1.339500000000000000e+04
1.339500000000000000e+04
1.341100000000000000e+04
1.347500000000000000e+04
1.357100000000000000e+04
1.357100000000000000e+04
1.345900000000000000e+04
1.339500000000000000e+04
1.345900000000000000e+04
1.349100000000000000e+04
1.339500000000000000e+04
1.333100000000000000e+04
1.331500000000000000e+04
1.321900000000000000e+04
1.312300000000000000e+04
1.318700000000000000e+04
1.326700000000000000e+04
1.341100000000000000e+04
1.361900000000000000e+04
1.376300000000000000e+04
1.397100000000000000e+04
1.398700000000000000e+04
1.403500000000000000e+04
1.433900000000000000e+04
1.478700000000000000e+04
1.520300000000000000e+04
1.544300000000000000e+04
1.541100000000000000e+04
1.533100000000000000e+04
1.542700000000000000e+04
1.555500000000000000e+04
1.574700000000000000e+04
1.593900000000000000e+04
1.605100000000000000e+04
1.613100000000000000e+04
1.611500000000000000e+04
1.579500000000000000e+04
1.587500000000000000e+04
1.605100000000000000e+04
1.614700000000000000e+04
1.606700000000000000e+04
1.595500000000000000e+04
1.584300000000000000e+04
1.569900000000000000e+04
1.555500000000000000e+04
1.544300000000000000e+04
1.549100000000000000e+04
1.563500000000000000e+04
1.585900000000000000e+04
1.601900000000000000e+04
1.605100000000000000e+04
1.595500000000000000e+04
1.590700000000000000e+04
1.601900000000000000e+04
1.675600000000000000e+04
1.683600000000000000e+04
1.680400000000000000e+04
1.669200000000000000e+04
1.654800000000000000e+04
1.650000000000000000e+04
1.651600000000000000e+04
1.651600000000000000e+04
1.654800000000000000e+04
1.656400000000000000e+04
1.648400000000000000e+04
1.640400000000000000e+04
1.622700000000000000e+04
1.614700000000000000e+04
1.606700000000000000e+04
1.595500000000000000e+04
1.581100000000000000e+04
1.571500000000000000e+04
1.558700000000000000e+04
1.545900000000000000e+04
1.533100000000000000e+04
1.525100000000000000e+04
1.517100000000000000e+04
1.509100000000000000e+04
1.507500000000000000e+04
1.502700000000000000e+04
1.497900000000000000e+04
1.489900000000000000e+04
1.480300000000000000e+04
1.469100000000000000e+04
1.456300000000000000e+04
1.443500000000000000e+04
1.441900000000000000e+04
1.449900000000000000e+04
1.461100000000000000e+04
1.467500000000000000e+04
1.467500000000000000e+04
1.465900000000000000e+04
1.456300000000000000e+04
1.441900000000000000e+04
1.429100000000000000e+04
1.417900000000000000e+04
1.419500000000000000e+04
1.424300000000000000e+04
1.433900000000000000e+04
1.453100000000000000e+04
1.467500000000000000e+04
1.467500000000000000e+04
1.456300000000000000e+04
1.449900000000000000e+04
1.451500000000000000e+04
1.461100000000000000e+04
1.459500000000000000e+04
1.446700000000000000e+04
1.438700000000000000e+04
1.429100000000000000e+04
1.416300000000000000e+04
1.403500000000000000e+04
1.397100000000000000e+04
1.403500000000000000e+04
1.400300000000000000e+04
1.395500000000000000e+04
1.403500000000000000e+04
1.406700000000000000e+04
1.397100000000000000e+04
1.384300000000000000e+04
1.377900000000000000e+04
1.369900000000000000e+04
1.358700000000000000e+04
1.350700000000000000e+04
1.344300000000000000e+04
1.341100000000000000e+04
1.349100000000000000e+04
1.357100000000000000e+04
1.360300000000000000e+04
1.369900000000000000e+04
1.361900000000000000e+04
1.374700000000000000e+04
1.398700000000000000e+04
1.417900000000000000e+04
1.429100000000000000e+04
1.421100000000000000e+04
1.422700000000000000e+04
1.440300000000000000e+04
1.456300000000000000e+04
1.472300000000000000e+04
1.481900000000000000e+04
1.481900000000000000e+04
1.469100000000000000e+04
1.456300000000000000e+04
1.443500000000000000e+04
1.435500000000000000e+04
1.424300000000000000e+04
1.413100000000000000e+04
1.401900000000000000e+04
1.390700000000000000e+04
1.395500000000000000e+04
1.403500000000000000e+04
1.408300000000000000e+04
1.397100000000000000e+04
1.384300000000000000e+04
1.373100000000000000e+04
1.363500000000000000e+04
1.350700000000000000e+04
1.339500000000000000e+04
1.331500000000000000e+04
1.323500000000000000e+04
1.312300000000000000e+04
1.312300000000000000e+04
1.321900000000000000e+04
1.344300000000000000e+04
1.365100000000000000e+04
1.392300000000000000e+04
1.417900000000000000e+04
1.429100000000000000e+04
1.416300000000000000e+04
1.405100000000000000e+04
1.395500000000000000e+04
1.403500000000000000e+04
1.425900000000000000e+04
1.459500000000000000e+04
1.483500000000000000e+04
1.488300000000000000e+04
1.477100000000000000e+04
1.472300000000000000e+04
1.477100000000000000e+04
1.480300000000000000e+04
1.480300000000000000e+04
1.477100000000000000e+04
1.465900000000000000e+04
1.451500000000000000e+04
1.441900000000000000e+04
1.440300000000000000e+04
1.446700000000000000e+04
1.457900000000000000e+04
1.457900000000000000e+04
1.446700000000000000e+04
1.451500000000000000e+04
1.473900000000000000e+04
1.505900000000000000e+04
1.539500000000000000e+04
1.558700000000000000e+04
1.552300000000000000e+04
1.557100000000000000e+04
1.568300000000000000e+04
1.577900000000000000e+04
1.584300000000000000e+04
1.579500000000000000e+04
1.566700000000000000e+04
1.557100000000000000e+04
1.545900000000000000e+04
1.536300000000000000e+04
1.521900000000000000e+04
1.507500000000000000e+04
1.501100000000000000e+04
1.497900000000000000e+04
1.488300000000000000e+04
1.478700000000000000e+04
1.480300000000000000e+04
1.481900000000000000e+04
1.470700000000000000e+04
1.456300000000000000e+04
1.443500000000000000e+04
1.429100000000000000e+04
1.424300000000000000e+04
1.417900000000000000e+04
1.409900000000000000e+04
1.397100000000000000e+04
1.384300000000000000e+04
1.373100000000000000e+04
1.369900000000000000e+04
1.363500000000000000e+04
1.357100000000000000e+04
1.349100000000000000e+04
1.341100000000000000e+04
1.334700000000000000e+04
1.326700000000000000e+04
1.315500000000000000e+04
1.305900000000000000e+04
1.296300000000000000e+04
1.289900000000000000e+04
1.280300000000000000e+04
1.275500000000000000e+04
1.270700000000000000e+04
1.261100000000000000e+04
1.261100000000000000e+04
1.273900000000000000e+04
1.281900000000000000e+04
1.281900000000000000e+04
1.283500000000000000e+04
1.294700000000000000e+04
1.294700000000000000e+04
1.281900000000000000e+04
1.272300000000000000e+04
1.270700000000000000e+04
1.270700000000000000e+04
1.267500000000000000e+04
1.257900000000000000e+04
1.245100000000000000e+04
1.245100000000000000e+04
1.257900000000000000e+04
1.286700000000000000e+04
1.321900000000000000e+04
1.350700000000000000e+04
1.368300000000000000e+04
1.382700000000000000e+04
1.395500000000000000e+04
1.408300000000000000e+04
1.416300000000000000e+04
1.413100000000000000e+04
1.401900000000000000e+04
1.390700000000000000e+04
1.395500000000000000e+04
1.398700000000000000e+04
1.401900000000000000e+04
1.403500000000000000e+04
1.405100000000000000e+04
1.400300000000000000e+04
1.395500000000000000e+04
1.395500000000000000e+04
1.395500000000000000e+04
1.389100000000000000e+04
1.387500000000000000e+04
1.385900000000000000e+04
1.390700000000000000e+04
1.400300000000000000e+04
1.421100000000000000e+04
1.433900000000000000e+04
1.438700000000000000e+04
1.429100000000000000e+04
1.441900000000000000e+04
1.473900000000000000e+04
1.501100000000000000e+04
1.502700000000000000e+04
1.497900000000000000e+04
1.488300000000000000e+04
1.477100000000000000e+04
1.465900000000000000e+04
1.457900000000000000e+04
1.443500000000000000e+04
1.429100000000000000e+04
1.425900000000000000e+04
1.461100000000000000e+04
1.459500000000000000e+04
1.475500000000000000e+04
1.488300000000000000e+04
1.488300000000000000e+04
1.478700000000000000e+04
1.488300000000000000e+04
1.485100000000000000e+04
1.469100000000000000e+04
1.457900000000000000e+04
1.446700000000000000e+04
1.433900000000000000e+04
1.416300000000000000e+04
1.413100000000000000e+04
1.401900000000000000e+04
1.389100000000000000e+04
1.377900000000000000e+04
1.368300000000000000e+04
1.358700000000000000e+04
1.350700000000000000e+04
1.344300000000000000e+04
1.336300000000000000e+04
1.325100000000000000e+04
1.320300000000000000e+04
1.312300000000000000e+04
1.304300000000000000e+04
1.299500000000000000e+04
1.302700000000000000e+04
1.305900000000000000e+04
1.307500000000000000e+04
1.312300000000000000e+04
1.321900000000000000e+04
1.333100000000000000e+04
1.334700000000000000e+04
1.333100000000000000e+04
1.325100000000000000e+04
1.315500000000000000e+04
1.325100000000000000e+04
1.339500000000000000e+04
1.347500000000000000e+04
1.344300000000000000e+04
1.339500000000000000e+04
1.329900000000000000e+04
1.336300000000000000e+04
1.353900000000000000e+04
1.361900000000000000e+04
1.357100000000000000e+04
1.345900000000000000e+04
1.334700000000000000e+04
1.326700000000000000e+04
1.325100000000000000e+04
1.321900000000000000e+04
1.313900000000000000e+04
1.320300000000000000e+04
1.331500000000000000e+04
1.336300000000000000e+04
1.329900000000000000e+04
1.328300000000000000e+04
1.334700000000000000e+04
1.336300000000000000e+04
1.323500000000000000e+04
1.323500000000000000e+04
1.320300000000000000e+04
1.312300000000000000e+04
1.301100000000000000e+04
1.288300000000000000e+04
1.273900000000000000e+04
1.264300000000000000e+04
1.256300000000000000e+04
1.253100000000000000e+04
1.251500000000000000e+04
1.256300000000000000e+04
1.262700000000000000e+04
1.270700000000000000e+04
1.281900000000000000e+04
1.288300000000000000e+04
1.278700000000000000e+04
1.267500000000000000e+04
1.256300000000000000e+04
1.245100000000000000e+04
1.264300000000000000e+04
1.257900000000000000e+04
1.267500000000000000e+04
1.278700000000000000e+04
1.297900000000000000e+04
1.318700000000000000e+04
1.333100000000000000e+04
1.312300000000000000e+04
1.297900000000000000e+04
1.286700000000000000e+04
1.280300000000000000e+04
1.272300000000000000e+04
1.262700000000000000e+04
1.251500000000000000e+04
1.240300000000000000e+04
1.229100000000000000e+04
1.221000000000000000e+04
1.216200000000000000e+04
1.217800000000000000e+04
1.216200000000000000e+04
1.213000000000000000e+04
1.205000000000000000e+04
1.200200000000000000e+04
1.195400000000000000e+04
1.187400000000000000e+04
1.185800000000000000e+04
1.179400000000000000e+04
1.169800000000000000e+04
1.160200000000000000e+04
1.157000000000000000e+04
1.163400000000000000e+04
1.173000000000000000e+04
1.174600000000000000e+04
1.169800000000000000e+04
1.181000000000000000e+04
1.200200000000000000e+04
1.222600000000000000e+04
1.254700000000000000e+04
1.269100000000000000e+04
1.264300000000000000e+04
1.267500000000000000e+04
1.267500000000000000e+04
1.257900000000000000e+04
1.248300000000000000e+04
1.235500000000000000e+04
1.232300000000000000e+04
1.235500000000000000e+04
1.232300000000000000e+04
1.224200000000000000e+04
1.219400000000000000e+04
1.214600000000000000e+04
1.206600000000000000e+04
1.201800000000000000e+04
1.190600000000000000e+04
1.181000000000000000e+04
1.173000000000000000e+04
1.179400000000000000e+04
1.169800000000000000e+04
1.160200000000000000e+04
1.152200000000000000e+04
1.139400000000000000e+04
1.129800000000000000e+04
1.123400000000000000e+04
1.120200000000000000e+04
1.118600000000000000e+04
1.123400000000000000e+04
1.117000000000000000e+04
1.107400000000000000e+04
1.093000000000000000e+04
1.083400000000000000e+04
1.075400000000000000e+04
1.065800000000000000e+04
1.067400000000000000e+04
1.069000000000000000e+04
1.059400000000000000e+04
1.049800000000000000e+04
1.043400000000000000e+04
1.048200000000000000e+04
1.072200000000000000e+04
1.085000000000000000e+04
1.075400000000000000e+04
1.065800000000000000e+04
1.062600000000000000e+04
1.054600000000000000e+04
1.046600000000000000e+04
1.035400000000000000e+04
1.025800000000000000e+04
1.027400000000000000e+04
1.037000000000000000e+04
1.040200000000000000e+04
1.040200000000000000e+04
1.035400000000000000e+04
1.027400000000000000e+04
1.033800000000000000e+04
1.043400000000000000e+04
1.040200000000000000e+04
1.038600000000000000e+04
1.053000000000000000e+04
1.072200000000000000e+04
1.099400000000000000e+04
1.105800000000000000e+04
1.099400000000000000e+04
1.109000000000000000e+04
1.121800000000000000e+04
1.144200000000000000e+04
1.157000000000000000e+04
1.149000000000000000e+04
1.155400000000000000e+04
1.152200000000000000e+04
1.142600000000000000e+04
1.144200000000000000e+04
1.168200000000000000e+04
1.198600000000000000e+04
1.217800000000000000e+04
1.221000000000000000e+04
1.211400000000000000e+04
1.205000000000000000e+04
1.213000000000000000e+04
1.229100000000000000e+04
1.243500000000000000e+04
1.262700000000000000e+04
1.280300000000000000e+04
1.299500000000000000e+04
1.315500000000000000e+04
1.336300000000000000e+04
1.350700000000000000e+04
1.352300000000000000e+04
1.341100000000000000e+04
1.333100000000000000e+04
1.320300000000000000e+04
1.310700000000000000e+04
1.310700000000000000e+04
1.312300000000000000e+04
1.310700000000000000e+04
1.318700000000000000e+04
1.328300000000000000e+04
1.339500000000000000e+04
1.344300000000000000e+04
1.349100000000000000e+04
1.352300000000000000e+04
1.347500000000000000e+04
1.339500000000000000e+04
1.331500000000000000e+04
1.326700000000000000e+04
1.320300000000000000e+04
1.307500000000000000e+04
1.297900000000000000e+04
1.289900000000000000e+04
1.288300000000000000e+04
1.288300000000000000e+04
1.288300000000000000e+04
1.297900000000000000e+04
1.312300000000000000e+04
1.328300000000000000e+04
1.325100000000000000e+04
1.325100000000000000e+04
1.331500000000000000e+04
1.334700000000000000e+04
1.337900000000000000e+04
1.328300000000000000e+04
1.325100000000000000e+04
1.321900000000000000e+04
1.320300000000000000e+04
1.320300000000000000e+04
1.318700000000000000e+04
1.312300000000000000e+04
1.301100000000000000e+04
1.289900000000000000e+04
1.256300000000000000e+04
1.245100000000000000e+04
1.240300000000000000e+04
1.232300000000000000e+04
1.225800000000000000e+04
1.221000000000000000e+04
1.209800000000000000e+04
1.185800000000000000e+04
1.179400000000000000e+04
1.187400000000000000e+04
1.201800000000000000e+04
1.216200000000000000e+04
1.219400000000000000e+04
1.209800000000000000e+04
1.208200000000000000e+04
1.205000000000000000e+04
1.222600000000000000e+04
1.253100000000000000e+04
1.281900000000000000e+04
1.288300000000000000e+04
1.281900000000000000e+04
1.270700000000000000e+04
1.261100000000000000e+04
1.249900000000000000e+04
1.238700000000000000e+04
1.230700000000000000e+04
1.224200000000000000e+04
1.219400000000000000e+04
1.211400000000000000e+04
1.205000000000000000e+04
1.203400000000000000e+04
1.208200000000000000e+04
1.217800000000000000e+04
1.232300000000000000e+04
1.254700000000000000e+04
1.261100000000000000e+04
1.257900000000000000e+04
1.249900000000000000e+04
1.241900000000000000e+04
1.230700000000000000e+04
1.222600000000000000e+04
1.216200000000000000e+04
1.211400000000000000e+04
1.211400000000000000e+04
1.217800000000000000e+04
1.224200000000000000e+04
1.217800000000000000e+04
1.224200000000000000e+04
1.241900000000000000e+04
1.262700000000000000e+04
1.296300000000000000e+04
1.337900000000000000e+04
1.368300000000000000e+04
1.387500000000000000e+04
1.390700000000000000e+04
1.379500000000000000e+04
1.376300000000000000e+04
1.363500000000000000e+04
1.353900000000000000e+04
1.344300000000000000e+04
1.334700000000000000e+04
1.334700000000000000e+04
1.336300000000000000e+04
1.344300000000000000e+04
1.344300000000000000e+04
1.344300000000000000e+04
1.345900000000000000e+04
1.357100000000000000e+04
1.371500000000000000e+04
1.387500000000000000e+04
1.401900000000000000e+04
1.414700000000000000e+04
1.416300000000000000e+04
1.405100000000000000e+04
1.400300000000000000e+04
1.398700000000000000e+04
1.392300000000000000e+04
1.381100000000000000e+04
1.371500000000000000e+04
1.358700000000000000e+04
1.349100000000000000e+04
1.334700000000000000e+04
1.321900000000000000e+04
1.309100000000000000e+04
1.299500000000000000e+04
1.288300000000000000e+04
1.283500000000000000e+04
1.272300000000000000e+04
1.267500000000000000e+04
1.262700000000000000e+04
1.249900000000000000e+04
1.248300000000000000e+04
1.249900000000000000e+04
1.251500000000000000e+04
1.254700000000000000e+04
1.256300000000000000e+04
1.256300000000000000e+04
1.254700000000000000e+04
1.245100000000000000e+04
1.232300000000000000e+04
1.222600000000000000e+04
1.209800000000000000e+04
1.205000000000000000e+04
1.203400000000000000e+04
1.193800000000000000e+04
1.190600000000000000e+04
1.195400000000000000e+04
1.200200000000000000e+04
1.208200000000000000e+04
1.209800000000000000e+04
1.209800000000000000e+04
1.197000000000000000e+04
1.184200000000000000e+04
1.173000000000000000e+04
1.160200000000000000e+04
1.161800000000000000e+04
1.158600000000000000e+04
1.153800000000000000e+04
1.155400000000000000e+04
1.158600000000000000e+04
1.150600000000000000e+04
1.142600000000000000e+04
1.142600000000000000e+04
1.147400000000000000e+04
1.155400000000000000e+04
1.160200000000000000e+04
1.157000000000000000e+04
1.158600000000000000e+04
1.177800000000000000e+04
1.197000000000000000e+04
1.200200000000000000e+04
1.187400000000000000e+04
1.179400000000000000e+04
1.173000000000000000e+04
1.174600000000000000e+04
1.169800000000000000e+04
1.160200000000000000e+04
1.152200000000000000e+04
1.145800000000000000e+04
1.133000000000000000e+04
1.123400000000000000e+04
1.112200000000000000e+04
1.117000000000000000e+04
1.131400000000000000e+04
1.153800000000000000e+04
1.187400000000000000e+04
1.213000000000000000e+04
1.219400000000000000e+04
1.209800000000000000e+04
1.216200000000000000e+04
1.235500000000000000e+04
1.245100000000000000e+04
1.235500000000000000e+04
1.229100000000000000e+04
1.221000000000000000e+04
1.208200000000000000e+04
1.206600000000000000e+04
1.208200000000000000e+04
1.211400000000000000e+04
1.209800000000000000e+04
1.203400000000000000e+04
1.193800000000000000e+04
1.185800000000000000e+04
1.185800000000000000e+04
1.185800000000000000e+04
1.179400000000000000e+04
1.173000000000000000e+04
1.160200000000000000e+04
1.157000000000000000e+04
1.157000000000000000e+04
1.161800000000000000e+04
1.157000000000000000e+04
1.147400000000000000e+04
1.137800000000000000e+04
1.128200000000000000e+04
1.121800000000000000e+04
1.117000000000000000e+04
1.109000000000000000e+04
1.117000000000000000e+04
1.131400000000000000e+04
1.126600000000000000e+04
1.136200000000000000e+04
1.153800000000000000e+04
1.165000000000000000e+04
1.174600000000000000e+04
1.181000000000000000e+04
1.182600000000000000e+04
1.184200000000000000e+04
1.187400000000000000e+04
1.185800000000000000e+04
1.182600000000000000e+04
1.173000000000000000e+04
1.166600000000000000e+04
1.165000000000000000e+04
1.169800000000000000e+04
1.174600000000000000e+04
1.190600000000000000e+04
1.203400000000000000e+04
1.205000000000000000e+04
1.205000000000000000e+04
1.203400000000000000e+04
1.209800000000000000e+04
1.219400000000000000e+04
1.229100000000000000e+04
1.237100000000000000e+04
1.251500000000000000e+04
1.251500000000000000e+04
1.264300000000000000e+04
1.293100000000000000e+04
1.296300000000000000e+04
1.280300000000000000e+04
1.267500000000000000e+04
1.261100000000000000e+04
1.248300000000000000e+04
1.238700000000000000e+04
1.229100000000000000e+04
1.221000000000000000e+04
1.213000000000000000e+04
1.209800000000000000e+04
1.209800000000000000e+04
1.209800000000000000e+04
1.206600000000000000e+04
1.200200000000000000e+04
1.197000000000000000e+04
1.190600000000000000e+04
1.179400000000000000e+04
1.169800000000000000e+04
1.177800000000000000e+04
1.192200000000000000e+04
1.203400000000000000e+04
1.206600000000000000e+04
1.206600000000000000e+04
1.193800000000000000e+04
1.193800000000000000e+04
1.195400000000000000e+04
1.187400000000000000e+04
1.176200000000000000e+04
1.169800000000000000e+04
1.168200000000000000e+04
1.161800000000000000e+04
1.139400000000000000e+04
1.144200000000000000e+04
1.152200000000000000e+04
1.160200000000000000e+04
1.158600000000000000e+04
1.149000000000000000e+04
1.144200000000000000e+04
1.144200000000000000e+04
1.145800000000000000e+04
1.144200000000000000e+04
1.139400000000000000e+04
1.128200000000000000e+04
1.121800000000000000e+04
1.118600000000000000e+04
1.113800000000000000e+04
1.101000000000000000e+04
1.101000000000000000e+04
1.094600000000000000e+04
1.086600000000000000e+04
1.077000000000000000e+04
1.069000000000000000e+04
1.065800000000000000e+04
1.078600000000000000e+04
1.096200000000000000e+04
1.102600000000000000e+04
1.096200000000000000e+04
1.089800000000000000e+04
1.088200000000000000e+04
1.080200000000000000e+04
1.069000000000000000e+04
1.061000000000000000e+04
1.049800000000000000e+04
1.040200000000000000e+04
1.037000000000000000e+04
1.038600000000000000e+04
1.038600000000000000e+04
1.029000000000000000e+04
1.019400000000000000e+04
1.014600000000000000e+04
1.016200000000000000e+04
1.014600000000000000e+04
1.013000000000000000e+04
1.005000000000000000e+04
1.001800000000000000e+04
1.005000000000000000e+04
1.005000000000000000e+04
9.970000000000000000e+03
9.922000000000000000e+03
9.858000000000000000e+03
9.826000000000000000e+03
9.826000000000000000e+03
9.874000000000000000e+03
9.922000000000000000e+03
9.922000000000000000e+03
9.874000000000000000e+03
9.810000000000000000e+03
9.746000000000000000e+03
9.666000000000000000e+03
9.570000000000000000e+03
9.490000000000000000e+03
9.426000000000000000e+03
9.442000000000000000e+03
9.538000000000000000e+03
9.666000000000000000e+03
9.858000000000000000e+03
1.005000000000000000e+04
1.008200000000000000e+04
1.006600000000000000e+04
9.970000000000000000e+03
9.906000000000000000e+03
9.858000000000000000e+03
9.778000000000000000e+03
9.714000000000000000e+03
9.650000000000000000e+03
9.634000000000000000e+03
9.586000000000000000e+03
9.554000000000000000e+03
9.490000000000000000e+03
9.426000000000000000e+03
9.362000000000000000e+03
9.266000000000000000e+03
9.266000000000000000e+03
9.154000000000000000e+03
9.042000000000000000e+03
8.946000000000000000e+03
8.866000000000000000e+03
8.770000000000000000e+03
8.706000000000000000e+03
8.626000000000000000e+03
8.514000000000000000e+03
8.466000000000000000e+03
8.322000000000000000e+03
8.322000000000000000e+03
8.402000000000000000e+03
8.386000000000000000e+03
8.370000000000000000e+03
8.402000000000000000e+03
8.402000000000000000e+03
8.306000000000000000e+03
8.322000000000000000e+03
8.370000000000000000e+03
8.370000000000000000e+03
8.354000000000000000e+03
8.177000000000000000e+03
8.177000000000000000e+03
8.177000000000000000e+03
8.177000000000000000e+03
8.177000000000000000e+03
8.177000000000000000e+03
8.258000000000000000e+03
8.434000000000000000e+03
8.658000000000000000e+03
8.978000000000000000e+03
9.170000000000000000e+03
9.154000000000000000e+03
9.186000000000000000e+03
9.394000000000000000e+03
9.762000000000000000e+03
1.008200000000000000e+04
1.025800000000000000e+04
1.027400000000000000e+04
1.024200000000000000e+04
1.013000000000000000e+04
1.006600000000000000e+04
1.001800000000000000e+04
1.008200000000000000e+04
1.019400000000000000e+04
1.024200000000000000e+04
1.017800000000000000e+04
1.024200000000000000e+04
1.056200000000000000e+04
1.094600000000000000e+04
1.117000000000000000e+04
1.115400000000000000e+04
1.105800000000000000e+04
1.107400000000000000e+04
1.115400000000000000e+04
1.123400000000000000e+04
1.139400000000000000e+04
1.165000000000000000e+04
1.197000000000000000e+04
1.219400000000000000e+04
1.219400000000000000e+04
1.206600000000000000e+04
1.201800000000000000e+04
1.205000000000000000e+04
1.217800000000000000e+04
1.216200000000000000e+04
1.205000000000000000e+04
1.208200000000000000e+04
1.217800000000000000e+04
1.217800000000000000e+04
1.209800000000000000e+04
1.206600000000000000e+04
1.213000000000000000e+04
1.217800000000000000e+04
1.221000000000000000e+04
1.221000000000000000e+04
1.221000000000000000e+04
1.216200000000000000e+04
1.206600000000000000e+04
1.200200000000000000e+04
1.192200000000000000e+04
1.179400000000000000e+04
1.169800000000000000e+04
1.160200000000000000e+04
1.152200000000000000e+04
1.144200000000000000e+04
1.134600000000000000e+04
1.126600000000000000e+04
1.118600000000000000e+04
1.115400000000000000e+04
1.117000000000000000e+04
1.123400000000000000e+04
1.144200000000000000e+04
1.173000000000000000e+04
1.197000000000000000e+04
1.209800000000000000e+04
1.230700000000000000e+04
1.248300000000000000e+04
1.243500000000000000e+04
1.243500000000000000e+04
1.253100000000000000e+04
1.273900000000000000e+04
1.294700000000000000e+04
1.294700000000000000e+04
1.281900000000000000e+04
1.283500000000000000e+04
1.285100000000000000e+04
1.293100000000000000e+04
1.294700000000000000e+04
1.286700000000000000e+04
1.277100000000000000e+04
1.278700000000000000e+04
1.281900000000000000e+04
1.277100000000000000e+04
1.277100000000000000e+04
1.272300000000000000e+04
1.277100000000000000e+04
1.304300000000000000e+04
1.323500000000000000e+04
1.326700000000000000e+04
1.310700000000000000e+04
1.301100000000000000e+04
1.293100000000000000e+04
1.296300000000000000e+04
1.301100000000000000e+04
1.293100000000000000e+04
1.285100000000000000e+04
1.273900000000000000e+04
1.264300000000000000e+04
1.272300000000000000e+04
1.281900000000000000e+04
1.275500000000000000e+04
1.264300000000000000e+04
1.254700000000000000e+04
1.246700000000000000e+04
1.240300000000000000e+04
1.232300000000000000e+04
1.225800000000000000e+04
1.216200000000000000e+04
1.208200000000000000e+04
1.201800000000000000e+04
1.192200000000000000e+04
1.187400000000000000e+04
1.177800000000000000e+04
1.173000000000000000e+04
1.161800000000000000e+04
1.155400000000000000e+04
1.149000000000000000e+04
1.150600000000000000e+04
1.150600000000000000e+04
1.153800000000000000e+04
1.160200000000000000e+04
1.168200000000000000e+04
1.176200000000000000e+04
1.177800000000000000e+04
1.174600000000000000e+04
1.165000000000000000e+04
1.153800000000000000e+04
1.141000000000000000e+04
1.131400000000000000e+04
1.121800000000000000e+04
1.115400000000000000e+04
1.109000000000000000e+04
1.102600000000000000e+04
1.113800000000000000e+04
1.136200000000000000e+04
1.153800000000000000e+04
1.149000000000000000e+04
1.142600000000000000e+04
1.142600000000000000e+04
1.141000000000000000e+04
1.144200000000000000e+04
1.139400000000000000e+04
1.128200000000000000e+04
1.129800000000000000e+04
1.139400000000000000e+04
1.123400000000000000e+04
1.118600000000000000e+04
1.117000000000000000e+04
1.120200000000000000e+04
1.125000000000000000e+04
1.128200000000000000e+04
1.131400000000000000e+04
1.129800000000000000e+04
1.125000000000000000e+04
1.120200000000000000e+04
1.126600000000000000e+04
1.139400000000000000e+04
1.141000000000000000e+04
1.134600000000000000e+04
1.131400000000000000e+04
1.134600000000000000e+04
1.147400000000000000e+04
1.155400000000000000e+04
1.158600000000000000e+04
1.149000000000000000e+04
1.134600000000000000e+04
1.131400000000000000e+04
1.129800000000000000e+04
1.120200000000000000e+04
1.113800000000000000e+04
1.099400000000000000e+04
1.091400000000000000e+04
1.085000000000000000e+04
1.077000000000000000e+04
1.070600000000000000e+04
1.078600000000000000e+04
1.105800000000000000e+04
1.139400000000000000e+04
1.171400000000000000e+04
1.179400000000000000e+04
1.169800000000000000e+04
1.171400000000000000e+04
1.176200000000000000e+04
1.176200000000000000e+04
1.169800000000000000e+04
1.181000000000000000e+04
1.192200000000000000e+04
1.185800000000000000e+04
1.192200000000000000e+04
1.217800000000000000e+04
1.256300000000000000e+04
1.299500000000000000e+04
1.336300000000000000e+04
1.357100000000000000e+04
1.361900000000000000e+04
1.358700000000000000e+04
1.347500000000000000e+04
1.339500000000000000e+04
1.331500000000000000e+04
1.323500000000000000e+04
1.317100000000000000e+04
1.317100000000000000e+04
1.325100000000000000e+04
1.341100000000000000e+04
1.357100000000000000e+04
1.352300000000000000e+04
1.347500000000000000e+04
1.353900000000000000e+04
1.376300000000000000e+04
1.389100000000000000e+04
1.389100000000000000e+04
1.376300000000000000e+04
1.365100000000000000e+04
1.353900000000000000e+04
1.345900000000000000e+04
1.352300000000000000e+04
1.358700000000000000e+04
1.352300000000000000e+04
1.339500000000000000e+04
1.331500000000000000e+04
1.334700000000000000e+04
1.329900000000000000e+04
1.320300000000000000e+04
1.307500000000000000e+04
1.301100000000000000e+04
1.296300000000000000e+04
1.283500000000000000e+04
1.273900000000000000e+04
1.261100000000000000e+04
1.256300000000000000e+04
1.251500000000000000e+04
1.241900000000000000e+04
1.232300000000000000e+04
1.224200000000000000e+04
1.213000000000000000e+04
1.205000000000000000e+04
1.193800000000000000e+04
1.184200000000000000e+04
1.173000000000000000e+04
1.161800000000000000e+04
1.153800000000000000e+04
1.153800000000000000e+04
1.158600000000000000e+04
1.161800000000000000e+04
1.158600000000000000e+04
1.155400000000000000e+04
1.149000000000000000e+04
1.136200000000000000e+04
1.128200000000000000e+04
1.117000000000000000e+04
1.110600000000000000e+04
1.099400000000000000e+04
1.097800000000000000e+04
1.099400000000000000e+04
1.096200000000000000e+04
1.093000000000000000e+04
1.105800000000000000e+04
1.121800000000000000e+04
1.131400000000000000e+04
1.123400000000000000e+04
1.128200000000000000e+04
1.139400000000000000e+04
1.136200000000000000e+04
1.128200000000000000e+04
1.123400000000000000e+04
1.118600000000000000e+04
1.113800000000000000e+04
1.105800000000000000e+04
1.097800000000000000e+04
1.093000000000000000e+04
1.088200000000000000e+04
1.080200000000000000e+04
1.070600000000000000e+04
1.062600000000000000e+04
1.065800000000000000e+04
1.075400000000000000e+04
1.085000000000000000e+04
1.089800000000000000e+04
1.085000000000000000e+04
1.096200000000000000e+04
1.112200000000000000e+04
1.134600000000000000e+04
1.153800000000000000e+04
1.166600000000000000e+04
1.161800000000000000e+04
1.155400000000000000e+04
1.157000000000000000e+04
1.184200000000000000e+04
1.216200000000000000e+04
1.225800000000000000e+04
1.221000000000000000e+04
1.224200000000000000e+04
1.238700000000000000e+04
1.257900000000000000e+04
1.275500000000000000e+04
1.294700000000000000e+04
1.297900000000000000e+04
1.288300000000000000e+04
1.296300000000000000e+04
1.313900000000000000e+04
1.336300000000000000e+04
1.358700000000000000e+04
1.376300000000000000e+04
1.377900000000000000e+04
1.365100000000000000e+04
1.365100000000000000e+04
1.363500000000000000e+04
1.360300000000000000e+04
1.360300000000000000e+04
1.365100000000000000e+04
1.312300000000000000e+04
1.302700000000000000e+04
1.299500000000000000e+04
1.299500000000000000e+04
1.301100000000000000e+04
1.296300000000000000e+04
1.286700000000000000e+04
1.273900000000000000e+04
1.269100000000000000e+04
1.275500000000000000e+04
1.280300000000000000e+04
1.275500000000000000e+04
1.272300000000000000e+04
1.264300000000000000e+04
1.251500000000000000e+04
1.249900000000000000e+04
1.254700000000000000e+04
1.273900000000000000e+04
1.289900000000000000e+04
1.289900000000000000e+04
1.281900000000000000e+04
1.273900000000000000e+04
1.261100000000000000e+04
1.257900000000000000e+04
1.262700000000000000e+04
1.262700000000000000e+04
1.257900000000000000e+04
1.237100000000000000e+04
1.225800000000000000e+04
1.217800000000000000e+04
1.208200000000000000e+04
1.205000000000000000e+04
1.197000000000000000e+04
1.187400000000000000e+04
1.193800000000000000e+04
1.198600000000000000e+04
1.206600000000000000e+04
1.214600000000000000e+04
1.209800000000000000e+04
1.205000000000000000e+04
1.193800000000000000e+04
1.184200000000000000e+04
1.173000000000000000e+04
1.165000000000000000e+04
1.157000000000000000e+04
1.153800000000000000e+04
1.142600000000000000e+04
1.133000000000000000e+04
1.126600000000000000e+04
1.121800000000000000e+04
1.113800000000000000e+04
1.118600000000000000e+04
1.128200000000000000e+04
1.134600000000000000e+04
1.139400000000000000e+04
1.129800000000000000e+04
1.118600000000000000e+04
1.110600000000000000e+04
1.121800000000000000e+04
1.147400000000000000e+04
1.157000000000000000e+04
1.152200000000000000e+04
1.149000000000000000e+04
1.155400000000000000e+04
1.168200000000000000e+04
1.179400000000000000e+04
1.179400000000000000e+04
1.169800000000000000e+04
1.160200000000000000e+04
1.149000000000000000e+04
1.141000000000000000e+04
1.133000000000000000e+04
1.133000000000000000e+04
1.142600000000000000e+04
1.158600000000000000e+04
1.161800000000000000e+04
1.163400000000000000e+04
1.166600000000000000e+04
1.158600000000000000e+04
1.153800000000000000e+04
1.145800000000000000e+04
1.155400000000000000e+04
1.165000000000000000e+04
1.161800000000000000e+04
1.155400000000000000e+04
1.150600000000000000e+04
1.142600000000000000e+04
1.141000000000000000e+04
1.144200000000000000e+04
1.153800000000000000e+04
1.161800000000000000e+04
1.165000000000000000e+04
1.166600000000000000e+04
1.185800000000000000e+04
1.206600000000000000e+04
1.219400000000000000e+04
1.211400000000000000e+04
1.200200000000000000e+04
1.190600000000000000e+04
1.179400000000000000e+04
1.176200000000000000e+04
1.174600000000000000e+04
1.169800000000000000e+04
1.158600000000000000e+04
1.149000000000000000e+04
1.142600000000000000e+04
1.139400000000000000e+04
1.141000000000000000e+04
1.134600000000000000e+04
1.139400000000000000e+04
1.141000000000000000e+04
1.141000000000000000e+04
1.141000000000000000e+04
1.142600000000000000e+04
1.134600000000000000e+04
1.126600000000000000e+04
1.105800000000000000e+04
1.094600000000000000e+04
1.081800000000000000e+04
1.072200000000000000e+04
1.061000000000000000e+04
1.054600000000000000e+04
1.064200000000000000e+04
1.080200000000000000e+04
