2.349300000000000000e+04
2.309300000000000000e+04
2.291700000000000000e+04
2.285300000000000000e+04
2.291700000000000000e+04
2.288500000000000000e+04
2.274100000000000000e+04
2.280500000000000000e+04
2.286900000000000000e+04
2.288500000000000000e+04
2.283700000000000000e+04
2.286900000000000000e+04
2.286900000000000000e+04
2.274100000000000000e+04
2.261300000000000000e+04
2.266100000000000000e+04
2.272500000000000000e+04
2.275700000000000000e+04
2.275700000000000000e+04
2.267700000000000000e+04
2.253300000000000000e+04
2.234100000000000000e+04
2.219700000000000000e+04
2.206900000000000000e+04
2.208500000000000000e+04
2.214900000000000000e+04
2.227700000000000000e+04
2.229300000000000000e+04
2.230900000000000000e+04
2.254900000000000000e+04
2.277300000000000000e+04
2.285300000000000000e+04
2.282100000000000000e+04
2.278900000000000000e+04
2.286900000000000000e+04
2.307700000000000000e+04
2.336500000000000000e+04
2.357300000000000000e+04
2.368500000000000000e+04
2.355700000000000000e+04
2.338100000000000000e+04
2.336500000000000000e+04
2.346100000000000000e+04
2.346100000000000000e+04
2.339700000000000000e+04
2.339700000000000000e+04
2.342900000000000000e+04
2.355700000000000000e+04
2.363700000000000000e+04
2.365300000000000000e+04
2.357300000000000000e+04
2.342900000000000000e+04
2.344500000000000000e+04
2.342900000000000000e+04
2.339700000000000000e+04
2.336500000000000000e+04
2.333300000000000000e+04
2.333300000000000000e+04
2.336500000000000000e+04
2.325300000000000000e+04
2.309300000000000000e+04
2.302900000000000000e+04
2.299700000000000000e+04
2.301300000000000000e+04
2.320500000000000000e+04
2.352500000000000000e+04
2.373300000000000000e+04
2.373300000000000000e+04
2.374900000000000000e+04
2.374900000000000000e+04
2.360500000000000000e+04
2.355700000000000000e+04
2.357300000000000000e+04
2.349300000000000000e+04
2.339700000000000000e+04
2.323700000000000000e+04
2.309300000000000000e+04
2.296500000000000000e+04
2.280500000000000000e+04
2.262900000000000000e+04
2.248500000000000000e+04
2.243700000000000000e+04
2.243700000000000000e+04
2.230900000000000000e+04
2.222900000000000000e+04
2.211700000000000000e+04
2.203700000000000000e+04
2.192500000000000000e+04
2.170100000000000000e+04
2.157300000000000000e+04
2.142900000000000000e+04
2.125300000000000000e+04
2.125300000000000000e+04
2.133300000000000000e+04
2.128500000000000000e+04
2.122100000000000000e+04
2.106100000000000000e+04
2.094900000000000000e+04
2.106100000000000000e+04
2.146100000000000000e+04
2.203700000000000000e+04
2.254900000000000000e+04
2.280500000000000000e+04
2.277300000000000000e+04
2.261300000000000000e+04
2.259700000000000000e+04
2.266100000000000000e+04
2.262900000000000000e+04
2.251700000000000000e+04
2.242100000000000000e+04
2.230900000000000000e+04
2.214900000000000000e+04
2.198900000000000000e+04
2.194100000000000000e+04
2.198900000000000000e+04
2.210100000000000000e+04
2.229300000000000000e+04
2.259700000000000000e+04
2.286900000000000000e+04
2.314100000000000000e+04
2.339700000000000000e+04
2.363700000000000000e+04
2.376500000000000000e+04
2.397300000000000000e+04
2.421300000000000000e+04
2.451700000000000000e+04
2.466200000000000000e+04
2.483800000000000000e+04
2.490200000000000000e+04
2.474200000000000000e+04
2.456500000000000000e+04
2.453300000000000000e+04
2.440500000000000000e+04
2.421300000000000000e+04
2.424500000000000000e+04
2.451700000000000000e+04
2.471000000000000000e+04
2.498200000000000000e+04
2.520600000000000000e+04
2.547800000000000000e+04
2.551000000000000000e+04
2.538200000000000000e+04
2.525400000000000000e+04
2.519000000000000000e+04
2.512600000000000000e+04
2.509400000000000000e+04
2.501400000000000000e+04
2.490200000000000000e+04
2.485400000000000000e+04
2.487000000000000000e+04
2.485400000000000000e+04
2.477400000000000000e+04
2.459800000000000000e+04
2.456500000000000000e+04
2.456500000000000000e+04
2.456500000000000000e+04
2.456500000000000000e+04
2.479000000000000000e+04
2.506200000000000000e+04
2.538200000000000000e+04
2.560600000000000000e+04
2.560600000000000000e+04
2.541400000000000000e+04
2.523800000000000000e+04
2.512600000000000000e+04
2.515800000000000000e+04
2.523800000000000000e+04
2.531800000000000000e+04
2.541400000000000000e+04
2.555800000000000000e+04
2.576600000000000000e+04
2.605400000000000000e+04
2.647000000000000000e+04
2.695000000000000000e+04
2.719000000000000000e+04
2.719000000000000000e+04
2.698200000000000000e+04
2.682200000000000000e+04
2.671000000000000000e+04
2.683800000000000000e+04
2.703000000000000000e+04
2.733400000000000000e+04
2.770200000000000000e+04
2.819800000000000000e+04
2.871100000000000000e+04
2.914300000000000000e+04
2.923900000000000000e+04
2.904700000000000000e+04
2.885500000000000000e+04
2.874300000000000000e+04
2.864600000000000000e+04
2.858200000000000000e+04
2.858200000000000000e+04
2.858200000000000000e+04
2.858200000000000000e+04
2.859800000000000000e+04
2.861400000000000000e+04
2.858200000000000000e+04
2.858200000000000000e+04
2.864600000000000000e+04
2.861400000000000000e+04
2.855000000000000000e+04
2.847000000000000000e+04
2.842200000000000000e+04
2.823000000000000000e+04
2.799000000000000000e+04
2.781400000000000000e+04
2.765400000000000000e+04
2.746200000000000000e+04
2.741400000000000000e+04
2.730200000000000000e+04
2.709400000000000000e+04
2.707800000000000000e+04
2.722200000000000000e+04
2.733400000000000000e+04
2.733400000000000000e+04
2.727000000000000000e+04
2.711000000000000000e+04
2.688600000000000000e+04
2.664600000000000000e+04
2.650200000000000000e+04
2.634200000000000000e+04
2.567000000000000000e+04
2.543000000000000000e+04
2.538200000000000000e+04
2.543000000000000000e+04
2.543000000000000000e+04
2.525400000000000000e+04
2.512600000000000000e+04
2.522200000000000000e+04
2.522200000000000000e+04
2.511000000000000000e+04
2.488600000000000000e+04
2.467800000000000000e+04
2.467800000000000000e+04
2.474200000000000000e+04
2.464600000000000000e+04
2.456500000000000000e+04
2.451700000000000000e+04
2.432500000000000000e+04
2.416500000000000000e+04
2.410100000000000000e+04
2.406900000000000000e+04
2.398900000000000000e+04
2.386100000000000000e+04
2.371700000000000000e+04
2.354100000000000000e+04
2.336500000000000000e+04
2.317300000000000000e+04
2.298100000000000000e+04
2.285300000000000000e+04
2.275700000000000000e+04
2.258100000000000000e+04
2.246900000000000000e+04
2.232500000000000000e+04
2.218100000000000000e+04
2.218100000000000000e+04
2.230900000000000000e+04
2.237300000000000000e+04
2.230900000000000000e+04
2.219700000000000000e+04
2.205300000000000000e+04
2.190900000000000000e+04
2.174900000000000000e+04
2.160500000000000000e+04
2.152500000000000000e+04
2.158900000000000000e+04
2.168500000000000000e+04
2.173300000000000000e+04
2.170100000000000000e+04
2.157300000000000000e+04
2.141300000000000000e+04
2.122100000000000000e+04
2.106100000000000000e+04
2.099700000000000000e+04
2.101300000000000000e+04
2.102900000000000000e+04
2.102900000000000000e+04
2.088500000000000000e+04
2.083700000000000000e+04
2.093300000000000000e+04
2.093300000000000000e+04
2.090100000000000000e+04
2.099700000000000000e+04
2.109300000000000000e+04
2.114100000000000000e+04
2.118900000000000000e+04
2.125300000000000000e+04
2.120500000000000000e+04
2.117300000000000000e+04
2.104500000000000000e+04
2.086900000000000000e+04
2.083700000000000000e+04
2.093300000000000000e+04
2.106100000000000000e+04
2.128500000000000000e+04
2.146100000000000000e+04
2.146100000000000000e+04
2.138100000000000000e+04
2.138100000000000000e+04
2.158900000000000000e+04
2.179700000000000000e+04
2.176500000000000000e+04
2.186100000000000000e+04
2.250100000000000000e+04
2.333300000000000000e+04
2.403700000000000000e+04
2.437300000000000000e+04
2.435700000000000000e+04
2.463000000000000000e+04
2.525400000000000000e+04
2.578200000000000000e+04
2.624600000000000000e+04
2.647000000000000000e+04
2.651800000000000000e+04
2.634200000000000000e+04
2.615000000000000000e+04
2.616600000000000000e+04
2.637400000000000000e+04
2.671000000000000000e+04
2.707800000000000000e+04
2.723800000000000000e+04
2.714200000000000000e+04
2.691800000000000000e+04
2.667800000000000000e+04
2.645400000000000000e+04
2.626200000000000000e+04
2.607000000000000000e+04
2.592600000000000000e+04
2.581400000000000000e+04
2.560600000000000000e+04
2.554200000000000000e+04
2.554200000000000000e+04
2.552600000000000000e+04
2.544600000000000000e+04
2.538200000000000000e+04
2.541400000000000000e+04
2.552600000000000000e+04
2.554200000000000000e+04
2.551000000000000000e+04
2.536600000000000000e+04
2.522200000000000000e+04
2.509400000000000000e+04
2.490200000000000000e+04
2.467800000000000000e+04
2.456500000000000000e+04
2.456500000000000000e+04
2.466200000000000000e+04
2.488600000000000000e+04
2.480600000000000000e+04
2.479000000000000000e+04
2.503000000000000000e+04
2.525400000000000000e+04
2.535000000000000000e+04
2.515800000000000000e+04
2.506200000000000000e+04
2.543000000000000000e+04
2.603800000000000000e+04
2.653400000000000000e+04
2.677400000000000000e+04
2.672600000000000000e+04
2.651800000000000000e+04
2.642200000000000000e+04
2.629400000000000000e+04
2.605400000000000000e+04
2.591000000000000000e+04
2.578200000000000000e+04
2.562200000000000000e+04
2.555800000000000000e+04
2.554200000000000000e+04
2.560600000000000000e+04
2.567000000000000000e+04
2.573400000000000000e+04
2.573400000000000000e+04
2.573400000000000000e+04
2.575000000000000000e+04
2.568600000000000000e+04
2.551000000000000000e+04
2.538200000000000000e+04
2.538200000000000000e+04
2.554200000000000000e+04
2.563800000000000000e+04
2.562200000000000000e+04
2.552600000000000000e+04
2.531800000000000000e+04
2.514200000000000000e+04
2.503000000000000000e+04
2.495000000000000000e+04
2.485400000000000000e+04
2.466200000000000000e+04
2.456500000000000000e+04
2.442100000000000000e+04
2.426100000000000000e+04
2.410100000000000000e+04
2.395700000000000000e+04
2.386100000000000000e+04
2.376500000000000000e+04
2.366900000000000000e+04
2.365300000000000000e+04
2.366900000000000000e+04
2.370100000000000000e+04
2.373300000000000000e+04
2.378100000000000000e+04
2.378100000000000000e+04
2.370100000000000000e+04
2.355700000000000000e+04
2.352500000000000000e+04
2.342900000000000000e+04
2.328500000000000000e+04
2.320500000000000000e+04
2.318900000000000000e+04
2.325300000000000000e+04
2.344500000000000000e+04
2.363700000000000000e+04
2.370100000000000000e+04
2.357300000000000000e+04
2.379700000000000000e+04
2.624600000000000000e+04
2.711000000000000000e+04
2.733400000000000000e+04
2.728600000000000000e+04
2.706200000000000000e+04
2.695000000000000000e+04
2.698200000000000000e+04
2.818200000000000000e+04
2.869500000000000000e+04
2.898300000000000000e+04
2.906300000000000000e+04
2.893500000000000000e+04
2.874300000000000000e+04
2.872700000000000000e+04
2.887100000000000000e+04
2.903100000000000000e+04
2.911100000000000000e+04
2.906300000000000000e+04
2.893500000000000000e+04
2.871100000000000000e+04
2.850200000000000000e+04
2.829400000000000000e+04
2.829400000000000000e+04
2.843800000000000000e+04
2.867900000000000000e+04
2.880700000000000000e+04
2.875900000000000000e+04
2.858200000000000000e+04
2.835800000000000000e+04
2.811800000000000000e+04
2.803800000000000000e+04
2.818200000000000000e+04
2.837400000000000000e+04
2.850200000000000000e+04
2.847000000000000000e+04
2.826200000000000000e+04
2.818200000000000000e+04
2.832600000000000000e+04
2.861400000000000000e+04
2.893500000000000000e+04
2.933500000000000000e+04
2.976700000000000000e+04
3.002300000000000000e+04
3.002300000000000000e+04
2.984700000000000000e+04
2.995900000000000000e+04
3.027900000000000000e+04
3.061500000000000000e+04
3.075900000000000000e+04
3.085500000000000000e+04
3.112700000000000000e+04
3.152700000000000000e+04
3.192700000000000000e+04
3.218300000000000000e+04
3.215100000000000000e+04
3.191100000000000000e+04
3.181500000000000000e+04
3.170300000000000000e+04
3.165500000000000000e+04
3.157500000000000000e+04
3.152700000000000000e+04
3.146300000000000000e+04
3.139900000000000000e+04
3.133500000000000000e+04
3.125500000000000000e+04
3.123900000000000000e+04
3.123900000000000000e+04
3.117500000000000000e+04
3.099900000000000000e+04
3.072700000000000000e+04
3.056700000000000000e+04
3.055100000000000000e+04
3.064700000000000000e+04
3.056700000000000000e+04
3.035900000000000000e+04
3.021500000000000000e+04
3.013500000000000000e+04
3.010300000000000000e+04
2.991100000000000000e+04
2.973500000000000000e+04
2.955900000000000000e+04
2.936700000000000000e+04
2.919100000000000000e+04
2.912700000000000000e+04
2.912700000000000000e+04
2.922300000000000000e+04
2.922300000000000000e+04
2.901500000000000000e+04
2.895100000000000000e+04
2.890300000000000000e+04
2.895100000000000000e+04
2.919100000000000000e+04
2.936700000000000000e+04
2.927100000000000000e+04
2.911100000000000000e+04
2.904700000000000000e+04
2.933500000000000000e+04
2.944700000000000000e+04
2.923900000000000000e+04
2.922300000000000000e+04
2.933500000000000000e+04
2.939900000000000000e+04
2.943100000000000000e+04
2.983100000000000000e+04
2.971900000000000000e+04
2.949500000000000000e+04
2.933500000000000000e+04
2.912700000000000000e+04
2.895100000000000000e+04
2.880700000000000000e+04
2.859800000000000000e+04
2.839000000000000000e+04
2.823000000000000000e+04
2.808600000000000000e+04
2.792600000000000000e+04
2.775000000000000000e+04
2.536600000000000000e+04
2.519000000000000000e+04
2.504600000000000000e+04
2.493400000000000000e+04
2.477400000000000000e+04
2.459800000000000000e+04
2.456500000000000000e+04
2.440500000000000000e+04
2.421300000000000000e+04
2.402100000000000000e+04
2.381300000000000000e+04
2.371700000000000000e+04
2.365300000000000000e+04
2.352500000000000000e+04
2.333300000000000000e+04
2.322100000000000000e+04
2.306100000000000000e+04
2.288500000000000000e+04
2.269300000000000000e+04
2.258100000000000000e+04
2.259700000000000000e+04
2.272500000000000000e+04
2.282100000000000000e+04
2.285300000000000000e+04
2.285300000000000000e+04
2.277300000000000000e+04
2.259700000000000000e+04
2.254900000000000000e+04
2.248500000000000000e+04
2.242100000000000000e+04
2.243700000000000000e+04
2.250100000000000000e+04
2.237300000000000000e+04
2.221300000000000000e+04
2.203700000000000000e+04
2.187700000000000000e+04
2.184500000000000000e+04
2.198900000000000000e+04
2.203700000000000000e+04
2.206900000000000000e+04
2.206900000000000000e+04
2.202100000000000000e+04
2.182900000000000000e+04
2.173300000000000000e+04
2.171700000000000000e+04
2.179700000000000000e+04
2.178100000000000000e+04
2.165300000000000000e+04
2.150900000000000000e+04
2.138100000000000000e+04
2.146100000000000000e+04
2.165300000000000000e+04
2.181300000000000000e+04
2.171700000000000000e+04
2.155700000000000000e+04
2.136500000000000000e+04
2.122100000000000000e+04
2.112500000000000000e+04
2.102900000000000000e+04
2.094900000000000000e+04
2.086900000000000000e+04
2.074100000000000000e+04
2.064500000000000000e+04
2.046800000000000000e+04
2.027600000000000000e+04
2.030800000000000000e+04
2.026000000000000000e+04
2.008400000000000000e+04
2.000400000000000000e+04
1.992400000000000000e+04
1.978000000000000000e+04
1.965200000000000000e+04
1.955600000000000000e+04
1.947600000000000000e+04
1.941200000000000000e+04
1.928400000000000000e+04
1.922000000000000000e+04
1.917200000000000000e+04
1.904400000000000000e+04
1.893200000000000000e+04
1.894800000000000000e+04
1.910800000000000000e+04
1.930000000000000000e+04
1.950800000000000000e+04
1.958800000000000000e+04
1.947600000000000000e+04
1.941200000000000000e+04
1.955600000000000000e+04
1.979600000000000000e+04
2.003600000000000000e+04
2.037200000000000000e+04
2.066100000000000000e+04
2.090100000000000000e+04
2.101300000000000000e+04
2.099700000000000000e+04
2.085300000000000000e+04
2.093300000000000000e+04
2.117300000000000000e+04
2.144500000000000000e+04
2.160500000000000000e+04
2.166900000000000000e+04
2.170100000000000000e+04
2.157300000000000000e+04
2.146100000000000000e+04
2.147700000000000000e+04
2.160500000000000000e+04
2.171700000000000000e+04
2.168500000000000000e+04
2.152500000000000000e+04
2.134900000000000000e+04
2.120500000000000000e+04
2.118900000000000000e+04
2.106100000000000000e+04
2.107700000000000000e+04
2.107700000000000000e+04
2.096500000000000000e+04
2.088500000000000000e+04
2.080500000000000000e+04
2.066100000000000000e+04
2.066100000000000000e+04
2.064500000000000000e+04
2.056500000000000000e+04
2.051700000000000000e+04
2.061300000000000000e+04
2.080500000000000000e+04
2.082100000000000000e+04
2.066100000000000000e+04
2.024400000000000000e+04
2.022800000000000000e+04
2.030800000000000000e+04
2.038800000000000000e+04
2.048500000000000000e+04
2.061300000000000000e+04
2.070900000000000000e+04
2.069300000000000000e+04
2.058100000000000000e+04
2.043600000000000000e+04
2.046800000000000000e+04
2.054900000000000000e+04
2.058100000000000000e+04
2.050100000000000000e+04
2.037200000000000000e+04
2.030800000000000000e+04
2.029200000000000000e+04
2.022800000000000000e+04
2.011600000000000000e+04
1.994000000000000000e+04
1.981200000000000000e+04
1.981200000000000000e+04
1.989200000000000000e+04
1.990800000000000000e+04
1.994000000000000000e+04
1.997200000000000000e+04
1.992400000000000000e+04
1.981200000000000000e+04
1.965200000000000000e+04
1.946000000000000000e+04
1.928400000000000000e+04
1.925200000000000000e+04
1.947600000000000000e+04
1.987600000000000000e+04
2.030800000000000000e+04
2.070900000000000000e+04
2.099700000000000000e+04
2.115700000000000000e+04
2.104500000000000000e+04
2.093300000000000000e+04
2.086900000000000000e+04
2.112500000000000000e+04
2.117300000000000000e+04
2.122100000000000000e+04
2.139700000000000000e+04
2.152500000000000000e+04
2.165300000000000000e+04
2.178100000000000000e+04
2.181300000000000000e+04
2.176500000000000000e+04
2.168500000000000000e+04
2.155700000000000000e+04
2.165300000000000000e+04
2.170100000000000000e+04
2.163700000000000000e+04
2.154100000000000000e+04
2.138100000000000000e+04
2.134900000000000000e+04
2.139700000000000000e+04
2.126900000000000000e+04
2.114100000000000000e+04
2.102900000000000000e+04
2.088500000000000000e+04
2.090100000000000000e+04
2.094900000000000000e+04
2.094900000000000000e+04
2.090100000000000000e+04
2.096500000000000000e+04
2.099700000000000000e+04
2.093300000000000000e+04
2.082100000000000000e+04
2.080500000000000000e+04
2.069300000000000000e+04
2.061300000000000000e+04
2.056500000000000000e+04
2.042000000000000000e+04
2.032400000000000000e+04
2.029200000000000000e+04
2.029200000000000000e+04
2.032400000000000000e+04
2.030800000000000000e+04
2.026000000000000000e+04
2.016400000000000000e+04
2.014800000000000000e+04
2.019600000000000000e+04
2.019600000000000000e+04
2.010000000000000000e+04
1.997200000000000000e+04
1.984400000000000000e+04
1.968400000000000000e+04
1.962000000000000000e+04
1.950800000000000000e+04
1.936400000000000000e+04
1.934800000000000000e+04
1.930000000000000000e+04
1.920400000000000000e+04
1.904400000000000000e+04
1.890000000000000000e+04
1.878800000000000000e+04
1.877200000000000000e+04
1.870800000000000000e+04
1.864400000000000000e+04
1.864400000000000000e+04
1.867600000000000000e+04
1.862800000000000000e+04
1.845200000000000000e+04
1.832400000000000000e+04
1.819600000000000000e+04
1.806800000000000000e+04
1.792400000000000000e+04
1.776400000000000000e+04
1.770000000000000000e+04
1.750800000000000000e+04
1.744400000000000000e+04
1.752400000000000000e+04
1.770000000000000000e+04
1.800400000000000000e+04
1.838800000000000000e+04
1.874000000000000000e+04
1.894800000000000000e+04
1.910800000000000000e+04
1.952400000000000000e+04
1.987600000000000000e+04
2.006800000000000000e+04
2.013200000000000000e+04
2.014800000000000000e+04
2.059700000000000000e+04
2.181300000000000000e+04
2.307700000000000000e+04
2.394100000000000000e+04
2.440500000000000000e+04
2.456500000000000000e+04
2.458200000000000000e+04
2.456500000000000000e+04
2.448500000000000000e+04
2.438900000000000000e+04
2.434100000000000000e+04
2.429300000000000000e+04
2.419700000000000000e+04
2.406900000000000000e+04
2.394100000000000000e+04
2.392500000000000000e+04
2.400500000000000000e+04
2.408500000000000000e+04
2.408500000000000000e+04
2.398900000000000000e+04
2.387700000000000000e+04
2.371700000000000000e+04
2.371700000000000000e+04
2.378100000000000000e+04
2.381300000000000000e+04
2.363700000000000000e+04
2.350900000000000000e+04
2.344500000000000000e+04
2.344500000000000000e+04
2.349300000000000000e+04
2.366900000000000000e+04
2.386100000000000000e+04
2.398900000000000000e+04
2.403700000000000000e+04
2.408500000000000000e+04
2.411700000000000000e+04
2.400500000000000000e+04
2.394100000000000000e+04
2.392500000000000000e+04
2.387700000000000000e+04
2.382900000000000000e+04
2.373300000000000000e+04
2.368500000000000000e+04
2.382900000000000000e+04
2.410100000000000000e+04
2.443700000000000000e+04
2.456500000000000000e+04
2.451700000000000000e+04
2.435700000000000000e+04
2.434100000000000000e+04
2.427700000000000000e+04
2.410100000000000000e+04
2.413300000000000000e+04
2.422900000000000000e+04
2.421300000000000000e+04
2.416500000000000000e+04
2.418100000000000000e+04
2.424500000000000000e+04
2.421300000000000000e+04
2.406900000000000000e+04
2.389300000000000000e+04
2.392500000000000000e+04
2.398900000000000000e+04
2.406900000000000000e+04
2.402100000000000000e+04
2.398900000000000000e+04
2.389300000000000000e+04
2.378100000000000000e+04
2.373300000000000000e+04
2.387700000000000000e+04
2.408500000000000000e+04
2.410100000000000000e+04
2.390900000000000000e+04
2.373300000000000000e+04
2.358900000000000000e+04
2.339700000000000000e+04
2.322100000000000000e+04
2.320500000000000000e+04
2.323700000000000000e+04
2.318900000000000000e+04
2.307700000000000000e+04
2.298100000000000000e+04
2.283700000000000000e+04
2.278900000000000000e+04
2.309300000000000000e+04
2.346100000000000000e+04
2.355700000000000000e+04
2.346100000000000000e+04
2.370100000000000000e+04
2.389300000000000000e+04
2.368500000000000000e+04
2.357300000000000000e+04
2.344500000000000000e+04
2.330100000000000000e+04
2.318900000000000000e+04
2.291700000000000000e+04
2.264500000000000000e+04
2.254900000000000000e+04
2.270900000000000000e+04
2.291700000000000000e+04
2.291700000000000000e+04
2.285300000000000000e+04
2.299700000000000000e+04
2.317300000000000000e+04
2.342900000000000000e+04
2.365300000000000000e+04
2.381300000000000000e+04
2.376500000000000000e+04
2.357300000000000000e+04
2.344500000000000000e+04
2.336500000000000000e+04
2.326900000000000000e+04
2.322100000000000000e+04
2.318900000000000000e+04
2.314100000000000000e+04
2.306100000000000000e+04
2.298100000000000000e+04
2.293300000000000000e+04
2.283700000000000000e+04
2.278900000000000000e+04
2.270900000000000000e+04
2.254900000000000000e+04
2.243700000000000000e+04
2.227700000000000000e+04
2.211700000000000000e+04
2.195700000000000000e+04
2.187700000000000000e+04
2.179700000000000000e+04
2.178100000000000000e+04
2.178100000000000000e+04
2.166900000000000000e+04
2.152500000000000000e+04
2.138100000000000000e+04
2.126900000000000000e+04
2.112500000000000000e+04
2.115700000000000000e+04
2.141300000000000000e+04
2.160500000000000000e+04
2.163700000000000000e+04
2.146100000000000000e+04
2.128500000000000000e+04
2.115700000000000000e+04
2.101300000000000000e+04
2.090100000000000000e+04
2.080500000000000000e+04
2.067700000000000000e+04
2.058100000000000000e+04
2.067700000000000000e+04
2.099700000000000000e+04
2.150900000000000000e+04
2.202100000000000000e+04
2.245300000000000000e+04
2.259700000000000000e+04
2.246900000000000000e+04
2.243700000000000000e+04
2.262900000000000000e+04
2.310900000000000000e+04
2.374900000000000000e+04
2.448500000000000000e+04
2.483800000000000000e+04
2.485400000000000000e+04
2.471000000000000000e+04
2.472600000000000000e+04
2.480600000000000000e+04
2.487000000000000000e+04
2.475800000000000000e+04
2.456500000000000000e+04
2.451700000000000000e+04
2.435700000000000000e+04
2.414900000000000000e+04
2.402100000000000000e+04
2.398900000000000000e+04
2.397300000000000000e+04
2.382900000000000000e+04
2.363700000000000000e+04
2.350900000000000000e+04
2.334900000000000000e+04
2.314100000000000000e+04
2.294900000000000000e+04
2.275700000000000000e+04
2.258100000000000000e+04
2.235700000000000000e+04
2.222900000000000000e+04
2.222900000000000000e+04
2.229300000000000000e+04
2.230900000000000000e+04
2.238900000000000000e+04
2.253300000000000000e+04
2.262900000000000000e+04
2.250100000000000000e+04
2.267700000000000000e+04
2.299700000000000000e+04
2.325300000000000000e+04
2.333300000000000000e+04
2.334900000000000000e+04
2.323700000000000000e+04
2.306100000000000000e+04
2.298100000000000000e+04
2.288500000000000000e+04
2.274100000000000000e+04
2.256500000000000000e+04
2.242100000000000000e+04
2.262900000000000000e+04
2.261300000000000000e+04
2.253300000000000000e+04
2.232500000000000000e+04
2.206900000000000000e+04
2.186100000000000000e+04
2.170100000000000000e+04
2.158900000000000000e+04
2.160500000000000000e+04
2.150900000000000000e+04
2.138100000000000000e+04
2.134900000000000000e+04
2.128500000000000000e+04
2.115700000000000000e+04
2.099700000000000000e+04
2.109300000000000000e+04
2.114100000000000000e+04
2.098100000000000000e+04
2.094900000000000000e+04
2.088500000000000000e+04
2.080500000000000000e+04
2.077300000000000000e+04
2.085300000000000000e+04
2.106100000000000000e+04
2.128500000000000000e+04
2.149300000000000000e+04
2.163700000000000000e+04
2.150900000000000000e+04
2.163700000000000000e+04
2.270900000000000000e+04
2.278900000000000000e+04
2.277300000000000000e+04
2.278900000000000000e+04
2.275700000000000000e+04
2.278900000000000000e+04
2.274100000000000000e+04
2.266100000000000000e+04
2.246900000000000000e+04
2.230900000000000000e+04
2.211700000000000000e+04
2.197300000000000000e+04
2.181300000000000000e+04
2.165300000000000000e+04
2.157300000000000000e+04
2.157300000000000000e+04
2.160500000000000000e+04
2.165300000000000000e+04
2.173300000000000000e+04
2.178100000000000000e+04
2.176500000000000000e+04
2.173300000000000000e+04
2.179700000000000000e+04
2.192500000000000000e+04
2.194100000000000000e+04
2.190900000000000000e+04
2.178100000000000000e+04
2.165300000000000000e+04
2.166900000000000000e+04
2.155700000000000000e+04
2.152500000000000000e+04
2.155700000000000000e+04
2.149300000000000000e+04
2.134900000000000000e+04
2.130100000000000000e+04
2.122100000000000000e+04
2.106100000000000000e+04
2.093300000000000000e+04
2.088500000000000000e+04
2.096500000000000000e+04
2.101300000000000000e+04
2.102900000000000000e+04
2.106100000000000000e+04
2.104500000000000000e+04
2.094900000000000000e+04
2.077300000000000000e+04
2.062900000000000000e+04
2.051700000000000000e+04
2.048500000000000000e+04
2.054900000000000000e+04
2.066100000000000000e+04
2.066100000000000000e+04
2.053300000000000000e+04
2.040400000000000000e+04
2.024400000000000000e+04
2.016400000000000000e+04
2.019600000000000000e+04
2.018000000000000000e+04
2.002000000000000000e+04
2.000400000000000000e+04
2.010000000000000000e+04
2.014800000000000000e+04
2.011600000000000000e+04
2.010000000000000000e+04
2.016400000000000000e+04
2.029200000000000000e+04
2.030800000000000000e+04
2.018000000000000000e+04
2.026000000000000000e+04
2.032400000000000000e+04
2.038800000000000000e+04
2.038800000000000000e+04
2.026000000000000000e+04
2.021200000000000000e+04
2.027600000000000000e+04
2.027600000000000000e+04
2.014800000000000000e+04
2.014800000000000000e+04
2.016400000000000000e+04
2.011600000000000000e+04
1.997200000000000000e+04
1.987600000000000000e+04
2.010000000000000000e+04
2.013200000000000000e+04
1.994000000000000000e+04
1.979600000000000000e+04
1.966800000000000000e+04
1.966800000000000000e+04
1.981200000000000000e+04
1.995600000000000000e+04
1.989200000000000000e+04
1.973200000000000000e+04
1.971600000000000000e+04
1.965200000000000000e+04
1.954000000000000000e+04
1.955600000000000000e+04
1.923600000000000000e+04
1.923600000000000000e+04
1.925200000000000000e+04
1.917200000000000000e+04
1.899600000000000000e+04
1.883600000000000000e+04
1.872400000000000000e+04
1.878800000000000000e+04
1.907600000000000000e+04
1.936400000000000000e+04
1.954000000000000000e+04
1.950800000000000000e+04
1.934800000000000000e+04
1.925200000000000000e+04
1.917200000000000000e+04
1.906000000000000000e+04
1.890000000000000000e+04
1.883600000000000000e+04
1.882000000000000000e+04
1.882000000000000000e+04
1.872400000000000000e+04
1.869200000000000000e+04
1.874000000000000000e+04
1.885200000000000000e+04
1.886800000000000000e+04
1.875600000000000000e+04
1.864400000000000000e+04
1.854800000000000000e+04
1.843600000000000000e+04
1.829200000000000000e+04
1.837200000000000000e+04
1.859600000000000000e+04
1.878800000000000000e+04
1.877200000000000000e+04
1.866000000000000000e+04
1.875600000000000000e+04
1.909200000000000000e+04
1.957200000000000000e+04
2.002000000000000000e+04
2.042000000000000000e+04
2.062900000000000000e+04
2.064500000000000000e+04
2.048500000000000000e+04
2.040400000000000000e+04
2.037200000000000000e+04
2.037200000000000000e+04
2.035600000000000000e+04
2.038800000000000000e+04
2.038800000000000000e+04
2.040400000000000000e+04
2.043600000000000000e+04
2.048500000000000000e+04
2.058100000000000000e+04
2.074100000000000000e+04
2.074100000000000000e+04
2.061300000000000000e+04
2.054900000000000000e+04
2.064500000000000000e+04
2.074100000000000000e+04
2.061300000000000000e+04
2.045200000000000000e+04
2.043600000000000000e+04
2.046800000000000000e+04
2.053300000000000000e+04
2.054900000000000000e+04
2.058100000000000000e+04
2.056500000000000000e+04
2.050100000000000000e+04
2.045200000000000000e+04
2.043600000000000000e+04
2.042000000000000000e+04
2.035600000000000000e+04
2.021200000000000000e+04
2.022800000000000000e+04
2.050100000000000000e+04
2.088500000000000000e+04
2.130100000000000000e+04
2.173300000000000000e+04
2.192500000000000000e+04
2.179700000000000000e+04
2.166900000000000000e+04
2.141300000000000000e+04
2.120500000000000000e+04
2.115700000000000000e+04
2.117300000000000000e+04
2.125300000000000000e+04
2.128500000000000000e+04
2.128500000000000000e+04
2.125300000000000000e+04
2.123700000000000000e+04
2.126900000000000000e+04
2.123700000000000000e+04
2.112500000000000000e+04
2.086900000000000000e+04
2.066100000000000000e+04
2.056500000000000000e+04
2.056500000000000000e+04
2.069300000000000000e+04
2.082100000000000000e+04
2.086900000000000000e+04
2.088500000000000000e+04
2.090100000000000000e+04
2.074100000000000000e+04
2.066100000000000000e+04
2.064500000000000000e+04
2.053300000000000000e+04
2.040400000000000000e+04
2.022800000000000000e+04
2.011600000000000000e+04
1.994000000000000000e+04
1.989200000000000000e+04
1.986000000000000000e+04
1.973200000000000000e+04
1.957200000000000000e+04
1.949200000000000000e+04
1.944400000000000000e+04
1.936400000000000000e+04
1.928400000000000000e+04
1.920400000000000000e+04
1.909200000000000000e+04
1.894800000000000000e+04
1.898000000000000000e+04
1.917200000000000000e+04
1.923600000000000000e+04
1.920400000000000000e+04
1.904400000000000000e+04
1.898000000000000000e+04
1.886800000000000000e+04
1.872400000000000000e+04
1.862800000000000000e+04
1.858000000000000000e+04
1.859600000000000000e+04
1.858000000000000000e+04
1.861200000000000000e+04
1.848400000000000000e+04
1.835600000000000000e+04
1.840400000000000000e+04
1.850000000000000000e+04
1.864400000000000000e+04
1.883600000000000000e+04
1.896400000000000000e+04
1.910800000000000000e+04
1.920400000000000000e+04
1.926800000000000000e+04
1.928400000000000000e+04
1.925200000000000000e+04
1.914000000000000000e+04
1.912400000000000000e+04
1.923600000000000000e+04
1.934800000000000000e+04
1.926800000000000000e+04
1.920400000000000000e+04
1.914000000000000000e+04
1.901200000000000000e+04
1.885200000000000000e+04
1.866000000000000000e+04
1.853200000000000000e+04
1.840400000000000000e+04
1.826000000000000000e+04
1.813200000000000000e+04
1.802000000000000000e+04
1.789200000000000000e+04
1.774800000000000000e+04
1.760400000000000000e+04
1.760400000000000000e+04
1.762000000000000000e+04
1.750800000000000000e+04
1.747600000000000000e+04
1.763600000000000000e+04
1.773200000000000000e+04
1.779600000000000000e+04
1.779600000000000000e+04
1.789200000000000000e+04
1.802000000000000000e+04
1.797200000000000000e+04
1.797200000000000000e+04
1.827600000000000000e+04
1.866000000000000000e+04
1.899600000000000000e+04
1.912400000000000000e+04
1.904400000000000000e+04
1.885200000000000000e+04
1.878800000000000000e+04
1.875600000000000000e+04
1.877200000000000000e+04
1.870800000000000000e+04
1.858000000000000000e+04
1.813200000000000000e+04
1.797200000000000000e+04
1.784400000000000000e+04
1.773200000000000000e+04
1.762000000000000000e+04
1.744400000000000000e+04
1.731600000000000000e+04
1.722000000000000000e+04
1.723600000000000000e+04
1.730000000000000000e+04
1.728400000000000000e+04
1.715600000000000000e+04
1.702800000000000000e+04
1.694800000000000000e+04
1.696400000000000000e+04
1.707600000000000000e+04
1.728400000000000000e+04
1.747600000000000000e+04
1.762000000000000000e+04
1.763600000000000000e+04
1.750800000000000000e+04
1.746000000000000000e+04
1.762000000000000000e+04
1.792400000000000000e+04
1.810000000000000000e+04
1.806800000000000000e+04
1.794000000000000000e+04
1.792400000000000000e+04
1.790800000000000000e+04
1.787600000000000000e+04
1.773200000000000000e+04
1.758800000000000000e+04
1.750800000000000000e+04
1.747600000000000000e+04
1.742800000000000000e+04
1.730000000000000000e+04
1.718800000000000000e+04
1.704400000000000000e+04
1.704400000000000000e+04
1.707600000000000000e+04
1.715600000000000000e+04
1.715600000000000000e+04
1.709200000000000000e+04
1.696400000000000000e+04
1.686800000000000000e+04
1.685200000000000000e+04
1.686800000000000000e+04
1.702800000000000000e+04
1.715600000000000000e+04
1.728400000000000000e+04
1.741200000000000000e+04
1.747600000000000000e+04
1.738000000000000000e+04
1.723600000000000000e+04
1.717200000000000000e+04
1.722000000000000000e+04
1.718800000000000000e+04
1.715600000000000000e+04
1.730000000000000000e+04
1.728400000000000000e+04
1.715600000000000000e+04
1.706000000000000000e+04
1.693200000000000000e+04
1.680400000000000000e+04
1.666000000000000000e+04
1.658000000000000000e+04
1.672400000000000000e+04
1.694800000000000000e+04
1.722000000000000000e+04
1.741200000000000000e+04
1.750800000000000000e+04
1.757200000000000000e+04
1.749200000000000000e+04
1.736400000000000000e+04
1.736400000000000000e+04
1.747600000000000000e+04
1.768400000000000000e+04
1.789200000000000000e+04
1.810000000000000000e+04
1.824400000000000000e+04
1.838800000000000000e+04
1.848400000000000000e+04
1.848400000000000000e+04
1.832400000000000000e+04
1.824400000000000000e+04
1.821200000000000000e+04
1.818000000000000000e+04
1.811600000000000000e+04
1.798800000000000000e+04
1.794000000000000000e+04
1.784400000000000000e+04
1.773200000000000000e+04
1.768400000000000000e+04
1.771600000000000000e+04
1.795600000000000000e+04
1.792400000000000000e+04
1.779600000000000000e+04
1.763600000000000000e+04
1.750800000000000000e+04
1.741200000000000000e+04
1.728400000000000000e+04
1.762000000000000000e+04
1.768400000000000000e+04
1.758800000000000000e+04
1.749200000000000000e+04
1.754000000000000000e+04
1.765200000000000000e+04
1.750800000000000000e+04
1.736400000000000000e+04
1.718800000000000000e+04
1.704400000000000000e+04
1.693200000000000000e+04
1.680400000000000000e+04
1.680400000000000000e+04
1.683600000000000000e+04
1.670800000000000000e+04
1.659600000000000000e+04
1.645200000000000000e+04
1.632300000000000000e+04
1.622700000000000000e+04
1.611500000000000000e+04
1.600300000000000000e+04
1.592300000000000000e+04
1.584300000000000000e+04
1.571500000000000000e+04
1.568300000000000000e+04
1.573100000000000000e+04
1.577900000000000000e+04
1.585900000000000000e+04
1.601900000000000000e+04
1.606700000000000000e+04
1.606700000000000000e+04
1.595500000000000000e+04
1.582700000000000000e+04
1.579500000000000000e+04
1.579500000000000000e+04
1.568300000000000000e+04
1.563500000000000000e+04
1.568300000000000000e+04
1.576300000000000000e+04
1.582700000000000000e+04
1.584300000000000000e+04
1.582700000000000000e+04
1.589100000000000000e+04
1.589100000000000000e+04
1.579500000000000000e+04
1.584300000000000000e+04
1.601900000000000000e+04
1.629100000000000000e+04
1.674000000000000000e+04
1.731600000000000000e+04
1.779600000000000000e+04
1.792400000000000000e+04
1.781200000000000000e+04
1.779600000000000000e+04
1.787600000000000000e+04
1.811600000000000000e+04
1.835600000000000000e+04
1.862800000000000000e+04
1.878800000000000000e+04
1.891600000000000000e+04
1.904400000000000000e+04
1.902800000000000000e+04
1.893200000000000000e+04
1.882000000000000000e+04
1.891600000000000000e+04
1.904400000000000000e+04
1.915600000000000000e+04
1.925200000000000000e+04
1.928400000000000000e+04
1.933200000000000000e+04
1.934800000000000000e+04
1.933200000000000000e+04
1.917200000000000000e+04
1.902800000000000000e+04
1.894800000000000000e+04
1.885200000000000000e+04
1.874000000000000000e+04
1.867600000000000000e+04
1.866000000000000000e+04
1.872400000000000000e+04
1.875600000000000000e+04
1.878800000000000000e+04
1.874000000000000000e+04
1.856400000000000000e+04
1.843600000000000000e+04
1.835600000000000000e+04
1.837200000000000000e+04
1.848400000000000000e+04
1.846800000000000000e+04
1.834000000000000000e+04
1.818000000000000000e+04
1.813200000000000000e+04
1.808400000000000000e+04
1.802000000000000000e+04
1.851600000000000000e+04
1.853200000000000000e+04
1.846800000000000000e+04
1.830800000000000000e+04
1.822800000000000000e+04
1.811600000000000000e+04
1.774800000000000000e+04
1.762000000000000000e+04
1.749200000000000000e+04
1.742800000000000000e+04
1.744400000000000000e+04
1.736400000000000000e+04
1.730000000000000000e+04
1.733200000000000000e+04
1.747600000000000000e+04
1.765200000000000000e+04
1.792400000000000000e+04
1.818000000000000000e+04
1.832400000000000000e+04
1.822800000000000000e+04
1.835600000000000000e+04
1.869200000000000000e+04
1.901200000000000000e+04
1.923600000000000000e+04
1.934800000000000000e+04
1.939600000000000000e+04
1.931600000000000000e+04
1.926800000000000000e+04
1.934800000000000000e+04
1.952400000000000000e+04
1.963600000000000000e+04
1.952400000000000000e+04
1.941200000000000000e+04
1.938000000000000000e+04
1.954000000000000000e+04
1.984400000000000000e+04
2.003600000000000000e+04
2.000400000000000000e+04
1.989200000000000000e+04
1.995600000000000000e+04
2.000400000000000000e+04
1.998800000000000000e+04
1.994000000000000000e+04
1.981200000000000000e+04
1.965200000000000000e+04
1.952400000000000000e+04
1.934800000000000000e+04
1.917200000000000000e+04
1.914000000000000000e+04
1.912400000000000000e+04
1.877200000000000000e+04
1.869200000000000000e+04
1.870800000000000000e+04
1.872400000000000000e+04
1.885200000000000000e+04
1.906000000000000000e+04
1.928400000000000000e+04
1.936400000000000000e+04
1.930000000000000000e+04
1.885200000000000000e+04
1.866000000000000000e+04
1.858000000000000000e+04
1.843600000000000000e+04
1.830800000000000000e+04
1.819600000000000000e+04
1.813200000000000000e+04
1.813200000000000000e+04
1.826000000000000000e+04
1.859600000000000000e+04
1.894800000000000000e+04
1.933200000000000000e+04
1.970000000000000000e+04
1.994000000000000000e+04
1.987600000000000000e+04
1.974800000000000000e+04
1.973200000000000000e+04
1.965200000000000000e+04
1.958800000000000000e+04
1.952400000000000000e+04
1.946000000000000000e+04
1.933200000000000000e+04
1.917200000000000000e+04
1.902800000000000000e+04
1.890000000000000000e+04
1.878800000000000000e+04
1.869200000000000000e+04
1.859600000000000000e+04
1.851600000000000000e+04
1.845200000000000000e+04
1.850000000000000000e+04
1.866000000000000000e+04
1.888400000000000000e+04
1.915600000000000000e+04
1.952400000000000000e+04
1.994000000000000000e+04
2.030800000000000000e+04
2.058100000000000000e+04
2.058100000000000000e+04
2.051700000000000000e+04
2.069300000000000000e+04
2.093300000000000000e+04
2.125300000000000000e+04
2.147700000000000000e+04
2.150900000000000000e+04
2.131700000000000000e+04
2.122100000000000000e+04
2.106100000000000000e+04
2.099700000000000000e+04
2.101300000000000000e+04
2.106100000000000000e+04
2.125300000000000000e+04
2.138100000000000000e+04
2.141300000000000000e+04
2.136500000000000000e+04
2.120500000000000000e+04
2.104500000000000000e+04
2.090100000000000000e+04
2.075700000000000000e+04
2.075700000000000000e+04
2.080500000000000000e+04
2.083700000000000000e+04
2.091700000000000000e+04
2.099700000000000000e+04
2.099700000000000000e+04
2.101300000000000000e+04
2.115700000000000000e+04
2.138100000000000000e+04
2.133300000000000000e+04
2.128500000000000000e+04
2.147700000000000000e+04
2.176500000000000000e+04
2.195700000000000000e+04
2.195700000000000000e+04
2.186100000000000000e+04
2.170100000000000000e+04
2.166900000000000000e+04
2.163700000000000000e+04
2.146100000000000000e+04
2.134900000000000000e+04
2.120500000000000000e+04
2.102900000000000000e+04
2.093300000000000000e+04
2.075700000000000000e+04
2.066100000000000000e+04
2.058100000000000000e+04
2.040400000000000000e+04
2.032400000000000000e+04
2.037200000000000000e+04
2.042000000000000000e+04
2.045200000000000000e+04
2.038800000000000000e+04
2.035600000000000000e+04
2.042000000000000000e+04
2.027600000000000000e+04
2.024400000000000000e+04
2.022800000000000000e+04
2.024400000000000000e+04
2.029200000000000000e+04
2.040400000000000000e+04
2.056500000000000000e+04
2.066100000000000000e+04
2.061300000000000000e+04
2.042000000000000000e+04
2.040400000000000000e+04
2.061300000000000000e+04
2.082100000000000000e+04
2.090100000000000000e+04
2.078900000000000000e+04
2.067700000000000000e+04
2.051700000000000000e+04
2.040400000000000000e+04
2.048500000000000000e+04
2.062900000000000000e+04
2.077300000000000000e+04
2.080500000000000000e+04
2.085300000000000000e+04
2.086900000000000000e+04
2.069300000000000000e+04
2.061300000000000000e+04
2.058100000000000000e+04
2.066100000000000000e+04
2.074100000000000000e+04
2.072500000000000000e+04
2.074100000000000000e+04
2.077300000000000000e+04
2.078900000000000000e+04
2.082100000000000000e+04
2.086900000000000000e+04
2.094900000000000000e+04
2.106100000000000000e+04
2.117300000000000000e+04
2.106100000000000000e+04
2.096500000000000000e+04
2.099700000000000000e+04
2.099700000000000000e+04
2.043600000000000000e+04
2.038800000000000000e+04
2.050100000000000000e+04
2.056500000000000000e+04
2.069300000000000000e+04
2.083700000000000000e+04
2.101300000000000000e+04
2.094900000000000000e+04
2.080500000000000000e+04
2.077300000000000000e+04
2.090100000000000000e+04
2.099700000000000000e+04
2.099700000000000000e+04
2.099700000000000000e+04
2.091700000000000000e+04
2.077300000000000000e+04
2.061300000000000000e+04
2.046800000000000000e+04
2.034000000000000000e+04
2.022800000000000000e+04
2.016400000000000000e+04
2.016400000000000000e+04
2.029200000000000000e+04
2.029200000000000000e+04
2.011600000000000000e+04
2.027600000000000000e+04
2.048500000000000000e+04
2.064500000000000000e+04
2.077300000000000000e+04
2.074100000000000000e+04
2.072500000000000000e+04
2.075700000000000000e+04
2.061300000000000000e+04
2.045200000000000000e+04
2.046800000000000000e+04
2.077300000000000000e+04
2.122100000000000000e+04
2.154100000000000000e+04
2.155700000000000000e+04
2.146100000000000000e+04
2.128500000000000000e+04
2.110900000000000000e+04
2.093300000000000000e+04
2.077300000000000000e+04
2.061300000000000000e+04
2.046800000000000000e+04
2.043600000000000000e+04
2.045200000000000000e+04
2.048500000000000000e+04
2.051700000000000000e+04
2.056500000000000000e+04
2.056500000000000000e+04
2.046800000000000000e+04
2.032400000000000000e+04
2.027600000000000000e+04
2.032400000000000000e+04
2.037200000000000000e+04
2.030800000000000000e+04
2.016400000000000000e+04
2.002000000000000000e+04
1.998800000000000000e+04
2.003600000000000000e+04
2.002000000000000000e+04
1.994000000000000000e+04
1.979600000000000000e+04
1.970000000000000000e+04
1.963600000000000000e+04
1.950800000000000000e+04
1.936400000000000000e+04
1.933200000000000000e+04
1.933200000000000000e+04
1.934800000000000000e+04
1.939600000000000000e+04
1.942800000000000000e+04
1.939600000000000000e+04
1.922000000000000000e+04
1.920400000000000000e+04
1.928400000000000000e+04
1.947600000000000000e+04
1.971600000000000000e+04
1.976400000000000000e+04
1.966800000000000000e+04
1.950800000000000000e+04
1.949200000000000000e+04
1.952400000000000000e+04
1.947600000000000000e+04
1.934800000000000000e+04
1.918800000000000000e+04
1.904400000000000000e+04
1.886800000000000000e+04
1.878800000000000000e+04
1.869200000000000000e+04
1.862800000000000000e+04
1.874000000000000000e+04
1.898000000000000000e+04
1.912400000000000000e+04
1.917200000000000000e+04
1.904400000000000000e+04
1.890000000000000000e+04
1.883600000000000000e+04
1.890000000000000000e+04
1.912400000000000000e+04
1.936400000000000000e+04
1.952400000000000000e+04
1.954000000000000000e+04
1.941200000000000000e+04
1.933200000000000000e+04
1.930000000000000000e+04
1.914000000000000000e+04
1.898000000000000000e+04
1.885200000000000000e+04
1.882000000000000000e+04
1.891600000000000000e+04
1.907600000000000000e+04
1.930000000000000000e+04
1.947600000000000000e+04
1.946000000000000000e+04
1.930000000000000000e+04
1.918800000000000000e+04
1.904400000000000000e+04
1.896400000000000000e+04
1.917200000000000000e+04
1.973200000000000000e+04
2.030800000000000000e+04
2.083700000000000000e+04
2.120500000000000000e+04
2.133300000000000000e+04
2.122100000000000000e+04
2.112500000000000000e+04
2.114100000000000000e+04
2.128500000000000000e+04
2.142900000000000000e+04
2.136500000000000000e+04
2.114100000000000000e+04
2.102900000000000000e+04
2.093300000000000000e+04
2.080500000000000000e+04
2.069300000000000000e+04
2.061300000000000000e+04
2.046800000000000000e+04
2.045200000000000000e+04
2.058100000000000000e+04
2.074100000000000000e+04
2.069300000000000000e+04
2.054900000000000000e+04
2.038800000000000000e+04
2.018000000000000000e+04
2.013200000000000000e+04
2.010000000000000000e+04
2.016400000000000000e+04
2.018000000000000000e+04
2.005200000000000000e+04
1.990800000000000000e+04
1.989200000000000000e+04
1.994000000000000000e+04
1.997200000000000000e+04
1.984400000000000000e+04
1.968400000000000000e+04
1.954000000000000000e+04
1.949200000000000000e+04
1.938000000000000000e+04
1.936400000000000000e+04
1.936400000000000000e+04
1.938000000000000000e+04
1.930000000000000000e+04
1.925200000000000000e+04
1.934800000000000000e+04
1.941200000000000000e+04
1.946000000000000000e+04
1.936400000000000000e+04
1.925200000000000000e+04
1.925200000000000000e+04
1.926800000000000000e+04
1.914000000000000000e+04
1.907600000000000000e+04
1.898000000000000000e+04
1.902800000000000000e+04
1.912400000000000000e+04
1.926800000000000000e+04
1.939600000000000000e+04
1.939600000000000000e+04
1.923600000000000000e+04
1.912400000000000000e+04
1.910800000000000000e+04
1.922000000000000000e+04
1.930000000000000000e+04
1.941200000000000000e+04
1.958800000000000000e+04
1.971600000000000000e+04
1.976400000000000000e+04
1.973200000000000000e+04
1.958800000000000000e+04
1.950800000000000000e+04
1.946000000000000000e+04
1.942800000000000000e+04
1.930000000000000000e+04
1.914000000000000000e+04
1.902800000000000000e+04
1.890000000000000000e+04
1.885200000000000000e+04
1.898000000000000000e+04
1.925200000000000000e+04
1.970000000000000000e+04
2.006800000000000000e+04
2.045200000000000000e+04
2.078900000000000000e+04
2.099700000000000000e+04
2.094900000000000000e+04
2.091700000000000000e+04
2.114100000000000000e+04
2.158900000000000000e+04
2.222900000000000000e+04
2.294900000000000000e+04
2.341300000000000000e+04
2.360500000000000000e+04
2.365300000000000000e+04
2.352500000000000000e+04
2.334900000000000000e+04
2.317300000000000000e+04
2.310900000000000000e+04
2.306100000000000000e+04
2.302900000000000000e+04
2.294900000000000000e+04
2.291700000000000000e+04
2.304500000000000000e+04
2.336500000000000000e+04
2.379700000000000000e+04
2.416500000000000000e+04
2.434100000000000000e+04
2.422900000000000000e+04
2.413300000000000000e+04
2.421300000000000000e+04
2.432500000000000000e+04
2.429300000000000000e+04
2.411700000000000000e+04
2.394100000000000000e+04
2.370100000000000000e+04
2.352500000000000000e+04
2.334900000000000000e+04
2.325300000000000000e+04
2.325300000000000000e+04
2.312500000000000000e+04
2.314100000000000000e+04
2.330100000000000000e+04
2.346100000000000000e+04
2.357300000000000000e+04
2.381300000000000000e+04
2.397300000000000000e+04
2.402100000000000000e+04
2.384500000000000000e+04
2.371700000000000000e+04
2.363700000000000000e+04
2.357300000000000000e+04
2.346100000000000000e+04
2.331700000000000000e+04
2.318900000000000000e+04
2.304500000000000000e+04
2.410100000000000000e+04
2.419700000000000000e+04
2.402100000000000000e+04
2.382900000000000000e+04
2.363700000000000000e+04
2.344500000000000000e+04
2.326900000000000000e+04
2.314100000000000000e+04
2.301300000000000000e+04
2.282100000000000000e+04
2.269300000000000000e+04
2.261300000000000000e+04
2.266100000000000000e+04
2.275700000000000000e+04
2.291700000000000000e+04
2.306100000000000000e+04
2.331700000000000000e+04
2.349300000000000000e+04
2.358900000000000000e+04
2.366900000000000000e+04
2.370100000000000000e+04
2.358900000000000000e+04
2.352500000000000000e+04
2.382900000000000000e+04
2.435700000000000000e+04
2.482200000000000000e+04
2.530200000000000000e+04
2.552600000000000000e+04
2.549400000000000000e+04
2.530200000000000000e+04
2.530200000000000000e+04
2.552600000000000000e+04
2.573400000000000000e+04
2.576600000000000000e+04
2.560600000000000000e+04
2.538200000000000000e+04
2.514200000000000000e+04
2.493400000000000000e+04
2.477400000000000000e+04
2.463000000000000000e+04
2.453300000000000000e+04
2.435700000000000000e+04
2.416500000000000000e+04
2.397300000000000000e+04
2.376500000000000000e+04
2.362100000000000000e+04
2.346100000000000000e+04
2.325300000000000000e+04
2.314100000000000000e+04
2.312500000000000000e+04
2.310900000000000000e+04
2.302900000000000000e+04
2.285300000000000000e+04
2.269300000000000000e+04
2.256500000000000000e+04
2.240500000000000000e+04
2.222900000000000000e+04
2.205300000000000000e+04
2.186100000000000000e+04
2.174900000000000000e+04
2.171700000000000000e+04
2.179700000000000000e+04
2.182900000000000000e+04
2.202100000000000000e+04
2.218100000000000000e+04
2.234100000000000000e+04
2.243700000000000000e+04
2.258100000000000000e+04
2.267700000000000000e+04
2.270900000000000000e+04
2.253300000000000000e+04
2.250100000000000000e+04
2.259700000000000000e+04
2.285300000000000000e+04
2.334900000000000000e+04
2.374900000000000000e+04
2.394100000000000000e+04
2.387700000000000000e+04
2.371700000000000000e+04
2.357300000000000000e+04
2.355700000000000000e+04
2.347700000000000000e+04
2.331700000000000000e+04
2.323700000000000000e+04
2.320500000000000000e+04
2.315700000000000000e+04
2.307700000000000000e+04
2.294900000000000000e+04
2.275700000000000000e+04
2.258100000000000000e+04
2.248500000000000000e+04
2.246900000000000000e+04
2.250100000000000000e+04
2.253300000000000000e+04
2.254900000000000000e+04
2.256500000000000000e+04
2.246900000000000000e+04
2.237300000000000000e+04
2.235700000000000000e+04
2.218100000000000000e+04
2.198900000000000000e+04
2.186100000000000000e+04
2.179700000000000000e+04
2.166900000000000000e+04
2.110900000000000000e+04
2.114100000000000000e+04
2.138100000000000000e+04
2.166900000000000000e+04
2.192500000000000000e+04
2.198900000000000000e+04
2.186100000000000000e+04
2.208500000000000000e+04
2.229300000000000000e+04
2.248500000000000000e+04
2.259700000000000000e+04
2.267700000000000000e+04
2.278900000000000000e+04
2.275700000000000000e+04
2.262900000000000000e+04
2.251700000000000000e+04
2.248500000000000000e+04
2.243700000000000000e+04
2.243700000000000000e+04
2.258100000000000000e+04
2.275700000000000000e+04
2.286900000000000000e+04
2.294900000000000000e+04
2.293300000000000000e+04
2.275700000000000000e+04
2.261300000000000000e+04
2.256500000000000000e+04
2.243700000000000000e+04
2.229300000000000000e+04
2.208500000000000000e+04
2.189300000000000000e+04
2.173300000000000000e+04
2.155700000000000000e+04
2.141300000000000000e+04
2.128500000000000000e+04
2.120500000000000000e+04
2.120500000000000000e+04
2.122100000000000000e+04
2.115700000000000000e+04
2.102900000000000000e+04
2.090100000000000000e+04
2.078900000000000000e+04
2.064500000000000000e+04
2.050100000000000000e+04
2.037200000000000000e+04
2.019600000000000000e+04
2.000400000000000000e+04
1.990800000000000000e+04
1.979600000000000000e+04
1.966800000000000000e+04
1.965200000000000000e+04
1.971600000000000000e+04
1.986000000000000000e+04
2.005200000000000000e+04
2.000400000000000000e+04
2.000400000000000000e+04
1.997200000000000000e+04
1.992400000000000000e+04
1.992400000000000000e+04
1.979600000000000000e+04
1.965200000000000000e+04
1.952400000000000000e+04
1.936400000000000000e+04
1.934800000000000000e+04
1.930000000000000000e+04
1.922000000000000000e+04
1.910800000000000000e+04
1.896400000000000000e+04
1.901200000000000000e+04
1.917200000000000000e+04
1.934800000000000000e+04
1.946000000000000000e+04
1.958800000000000000e+04
1.973200000000000000e+04
1.971600000000000000e+04
1.955600000000000000e+04
1.942800000000000000e+04
1.931600000000000000e+04
1.918800000000000000e+04
1.902800000000000000e+04
1.890000000000000000e+04
1.875600000000000000e+04
1.867600000000000000e+04
1.853200000000000000e+04
1.851600000000000000e+04
1.856400000000000000e+04
1.869200000000000000e+04
1.890000000000000000e+04
1.914000000000000000e+04
1.923600000000000000e+04
1.922000000000000000e+04
1.918800000000000000e+04
1.907600000000000000e+04
1.907600000000000000e+04
1.939600000000000000e+04
1.976400000000000000e+04
1.979600000000000000e+04
1.974800000000000000e+04
1.974800000000000000e+04
1.971600000000000000e+04
1.958800000000000000e+04
1.963600000000000000e+04
1.979600000000000000e+04
1.990800000000000000e+04
1.992400000000000000e+04
1.987600000000000000e+04
1.979600000000000000e+04
1.971600000000000000e+04
1.965200000000000000e+04
1.936400000000000000e+04
1.934800000000000000e+04
1.936400000000000000e+04
1.928400000000000000e+04
1.915600000000000000e+04
1.923600000000000000e+04
1.938000000000000000e+04
1.946000000000000000e+04
1.925200000000000000e+04
1.920400000000000000e+04
1.939600000000000000e+04
1.981200000000000000e+04
2.019600000000000000e+04
2.045200000000000000e+04
2.054900000000000000e+04
2.048500000000000000e+04
2.035600000000000000e+04
2.019600000000000000e+04
2.013200000000000000e+04
2.010000000000000000e+04
2.010000000000000000e+04
2.010000000000000000e+04
2.013200000000000000e+04
2.024400000000000000e+04
2.037200000000000000e+04
2.048500000000000000e+04
2.051700000000000000e+04
2.053300000000000000e+04
2.058100000000000000e+04
2.048500000000000000e+04
2.040400000000000000e+04
2.024400000000000000e+04
2.014800000000000000e+04
2.003600000000000000e+04
2.003600000000000000e+04
1.990800000000000000e+04
2.006800000000000000e+04
2.034000000000000000e+04
2.027600000000000000e+04
2.026000000000000000e+04
2.014800000000000000e+04
1.997200000000000000e+04
1.986000000000000000e+04
1.968400000000000000e+04
1.955600000000000000e+04
1.941200000000000000e+04
1.928400000000000000e+04
1.920400000000000000e+04
1.902800000000000000e+04
1.890000000000000000e+04
1.886800000000000000e+04
1.890000000000000000e+04
1.882000000000000000e+04
1.872400000000000000e+04
1.861200000000000000e+04
1.861200000000000000e+04
1.866000000000000000e+04
1.870800000000000000e+04
1.864400000000000000e+04
1.850000000000000000e+04
1.837200000000000000e+04
1.826000000000000000e+04
1.824400000000000000e+04
1.818000000000000000e+04
1.806800000000000000e+04
1.795600000000000000e+04
1.781200000000000000e+04
1.771600000000000000e+04
1.760400000000000000e+04
1.750800000000000000e+04
1.742800000000000000e+04
1.741200000000000000e+04
1.744400000000000000e+04
1.750800000000000000e+04
1.755600000000000000e+04
1.755600000000000000e+04
1.757200000000000000e+04
1.754000000000000000e+04
1.746000000000000000e+04
1.733200000000000000e+04
1.720400000000000000e+04
1.725200000000000000e+04
1.738000000000000000e+04
1.757200000000000000e+04
1.774800000000000000e+04
1.787600000000000000e+04
1.790800000000000000e+04
1.779600000000000000e+04
1.768400000000000000e+04
1.750800000000000000e+04
1.741200000000000000e+04
1.728400000000000000e+04
1.733200000000000000e+04
1.781200000000000000e+04
1.843600000000000000e+04
1.888400000000000000e+04
1.912400000000000000e+04
1.925200000000000000e+04
1.920400000000000000e+04
1.909200000000000000e+04
1.904400000000000000e+04
1.894800000000000000e+04
1.880400000000000000e+04
1.864400000000000000e+04
1.850000000000000000e+04
1.853200000000000000e+04
1.851600000000000000e+04
1.838800000000000000e+04
1.834000000000000000e+04
1.830800000000000000e+04
1.821200000000000000e+04
1.813200000000000000e+04
1.805200000000000000e+04
1.795600000000000000e+04
1.782800000000000000e+04
1.771600000000000000e+04
1.760400000000000000e+04
1.765200000000000000e+04
1.789200000000000000e+04
1.811600000000000000e+04
1.835600000000000000e+04
1.864400000000000000e+04
1.885200000000000000e+04
1.882000000000000000e+04
1.912400000000000000e+04
1.936400000000000000e+04
1.952400000000000000e+04
1.952400000000000000e+04
1.946000000000000000e+04
1.939600000000000000e+04
1.925200000000000000e+04
1.906000000000000000e+04
1.893200000000000000e+04
1.875600000000000000e+04
1.861200000000000000e+04
1.846800000000000000e+04
1.840400000000000000e+04
1.840400000000000000e+04
1.838800000000000000e+04
1.830800000000000000e+04
1.816400000000000000e+04
1.805200000000000000e+04
1.792400000000000000e+04
1.787600000000000000e+04
1.781200000000000000e+04
1.779600000000000000e+04
1.774800000000000000e+04
1.768400000000000000e+04
1.765200000000000000e+04
1.755600000000000000e+04
1.746000000000000000e+04
1.730000000000000000e+04
1.717200000000000000e+04
1.702800000000000000e+04
1.690000000000000000e+04
1.678800000000000000e+04
1.675600000000000000e+04
1.666000000000000000e+04
1.653200000000000000e+04
1.643600000000000000e+04
1.632300000000000000e+04
1.616300000000000000e+04
1.603500000000000000e+04
1.603500000000000000e+04
1.617900000000000000e+04
1.632300000000000000e+04
1.645200000000000000e+04
1.643600000000000000e+04
1.632300000000000000e+04
1.619500000000000000e+04
1.608300000000000000e+04
1.608300000000000000e+04
1.609900000000000000e+04
1.629100000000000000e+04
1.666000000000000000e+04
1.690000000000000000e+04
1.682000000000000000e+04
1.682000000000000000e+04
1.696400000000000000e+04
1.709200000000000000e+04
1.723600000000000000e+04
1.738000000000000000e+04
1.757200000000000000e+04
1.773200000000000000e+04
1.773200000000000000e+04
1.763600000000000000e+04
1.773200000000000000e+04
1.789200000000000000e+04
1.818000000000000000e+04
1.853200000000000000e+04
1.875600000000000000e+04
1.883600000000000000e+04
1.870800000000000000e+04
1.856400000000000000e+04
1.843600000000000000e+04
1.826000000000000000e+04
1.808400000000000000e+04
1.792400000000000000e+04
1.779600000000000000e+04
1.776400000000000000e+04
1.771600000000000000e+04
1.776400000000000000e+04
1.789200000000000000e+04
1.798800000000000000e+04
1.802000000000000000e+04
1.808400000000000000e+04
1.810000000000000000e+04
1.814800000000000000e+04
1.818000000000000000e+04
1.805200000000000000e+04
1.795600000000000000e+04
1.781200000000000000e+04
1.773200000000000000e+04
1.760400000000000000e+04
1.744400000000000000e+04
1.733200000000000000e+04
1.720400000000000000e+04
1.707600000000000000e+04
1.709200000000000000e+04
1.725200000000000000e+04
1.728400000000000000e+04
1.715600000000000000e+04
1.707600000000000000e+04
1.730000000000000000e+04
1.741200000000000000e+04
1.734800000000000000e+04
1.723600000000000000e+04
1.710800000000000000e+04
1.704400000000000000e+04
1.704400000000000000e+04
1.706000000000000000e+04
1.715600000000000000e+04
1.714000000000000000e+04
1.702800000000000000e+04
1.693200000000000000e+04
1.686800000000000000e+04
1.680400000000000000e+04
1.680400000000000000e+04
1.677200000000000000e+04
1.677200000000000000e+04
1.669200000000000000e+04
1.669200000000000000e+04
1.659600000000000000e+04
1.654800000000000000e+04
1.656400000000000000e+04
1.651600000000000000e+04
1.648400000000000000e+04
1.640400000000000000e+04
1.642000000000000000e+04
1.643600000000000000e+04
1.632300000000000000e+04
1.622700000000000000e+04
1.632300000000000000e+04
1.648400000000000000e+04
1.661200000000000000e+04
1.667600000000000000e+04
1.666000000000000000e+04
1.654800000000000000e+04
1.653200000000000000e+04
1.720400000000000000e+04
1.741200000000000000e+04
1.733200000000000000e+04
1.720400000000000000e+04
1.718800000000000000e+04
1.731600000000000000e+04
1.746000000000000000e+04
1.747600000000000000e+04
1.738000000000000000e+04
1.726800000000000000e+04
1.717200000000000000e+04
1.715600000000000000e+04
1.728400000000000000e+04
1.746000000000000000e+04
1.758800000000000000e+04
1.773200000000000000e+04
1.794000000000000000e+04
1.819600000000000000e+04
1.840400000000000000e+04
1.846800000000000000e+04
1.834000000000000000e+04
1.848400000000000000e+04
1.880400000000000000e+04
1.928400000000000000e+04
1.994000000000000000e+04
2.067700000000000000e+04
2.106100000000000000e+04
2.118900000000000000e+04
2.118900000000000000e+04
2.115700000000000000e+04
2.106100000000000000e+04
2.090100000000000000e+04
2.078900000000000000e+04
2.077300000000000000e+04
2.075700000000000000e+04
2.074100000000000000e+04
2.066100000000000000e+04
2.062900000000000000e+04
2.056500000000000000e+04
2.050100000000000000e+04
2.043600000000000000e+04
2.042000000000000000e+04
2.040400000000000000e+04
2.038800000000000000e+04
2.038800000000000000e+04
2.029200000000000000e+04
2.026000000000000000e+04
2.024400000000000000e+04
2.016400000000000000e+04
2.014800000000000000e+04
2.010000000000000000e+04
1.994000000000000000e+04
1.986000000000000000e+04
1.989200000000000000e+04
1.995600000000000000e+04
1.992400000000000000e+04
1.981200000000000000e+04
1.965200000000000000e+04
1.954000000000000000e+04
1.949200000000000000e+04
1.944400000000000000e+04
1.942800000000000000e+04
1.946000000000000000e+04
1.947600000000000000e+04
1.955600000000000000e+04
1.968400000000000000e+04
1.973200000000000000e+04
1.965200000000000000e+04
1.958800000000000000e+04
1.954000000000000000e+04
1.949200000000000000e+04
1.934800000000000000e+04
1.934800000000000000e+04
1.930000000000000000e+04
1.920400000000000000e+04
1.902800000000000000e+04
1.888400000000000000e+04
1.872400000000000000e+04
1.859600000000000000e+04
1.858000000000000000e+04
1.859600000000000000e+04
1.866000000000000000e+04
1.878800000000000000e+04
1.891600000000000000e+04
1.898000000000000000e+04
1.901200000000000000e+04
1.898000000000000000e+04
1.883600000000000000e+04
1.840400000000000000e+04
1.837200000000000000e+04
1.838800000000000000e+04
1.837200000000000000e+04
1.827600000000000000e+04
1.818000000000000000e+04
1.805200000000000000e+04
1.798800000000000000e+04
1.909200000000000000e+04
1.978000000000000000e+04
1.995600000000000000e+04
1.995600000000000000e+04
2.030800000000000000e+04
2.093300000000000000e+04
2.163700000000000000e+04
2.205300000000000000e+04
2.227700000000000000e+04
2.235700000000000000e+04
2.234100000000000000e+04
2.216500000000000000e+04
2.203700000000000000e+04
2.206900000000000000e+04
2.219700000000000000e+04
2.229300000000000000e+04
2.230900000000000000e+04
2.224500000000000000e+04
2.208500000000000000e+04
2.195700000000000000e+04
2.195700000000000000e+04
2.202100000000000000e+04
2.206900000000000000e+04
2.198900000000000000e+04
2.189300000000000000e+04
2.178100000000000000e+04
2.168500000000000000e+04
2.147700000000000000e+04
2.134900000000000000e+04
2.122100000000000000e+04
2.114100000000000000e+04
2.114100000000000000e+04
2.112500000000000000e+04
2.106100000000000000e+04
2.104500000000000000e+04
2.109300000000000000e+04
2.125300000000000000e+04
2.139700000000000000e+04
2.154100000000000000e+04
2.157300000000000000e+04
2.155700000000000000e+04
2.146100000000000000e+04
2.130100000000000000e+04
2.133300000000000000e+04
2.134900000000000000e+04
2.134900000000000000e+04
2.138100000000000000e+04
2.131700000000000000e+04
2.120500000000000000e+04
2.104500000000000000e+04
2.088500000000000000e+04
2.078900000000000000e+04
2.064500000000000000e+04
2.048500000000000000e+04
2.046800000000000000e+04
2.056500000000000000e+04
2.069300000000000000e+04
2.082100000000000000e+04
2.082100000000000000e+04
2.075700000000000000e+04
2.085300000000000000e+04
2.096500000000000000e+04
2.112500000000000000e+04
2.138100000000000000e+04
2.157300000000000000e+04
2.158900000000000000e+04
2.142900000000000000e+04
2.126900000000000000e+04
2.123700000000000000e+04
2.126900000000000000e+04
2.136500000000000000e+04
2.144500000000000000e+04
2.141300000000000000e+04
2.126900000000000000e+04
2.131700000000000000e+04
2.141300000000000000e+04
2.134900000000000000e+04
2.118900000000000000e+04
2.099700000000000000e+04
2.086900000000000000e+04
2.075700000000000000e+04
2.069300000000000000e+04
2.066100000000000000e+04
2.058100000000000000e+04
2.051700000000000000e+04
2.042000000000000000e+04
2.034000000000000000e+04
1.982800000000000000e+04
1.978000000000000000e+04
1.981200000000000000e+04
1.968400000000000000e+04
1.955600000000000000e+04
1.939600000000000000e+04
1.933200000000000000e+04
1.942800000000000000e+04
1.936400000000000000e+04
1.904400000000000000e+04
1.902800000000000000e+04
1.914000000000000000e+04
1.925200000000000000e+04
1.938000000000000000e+04
1.942800000000000000e+04
1.939600000000000000e+04
1.928400000000000000e+04
1.939600000000000000e+04
1.960400000000000000e+04
1.974800000000000000e+04
1.986000000000000000e+04
1.984400000000000000e+04
1.976400000000000000e+04
1.962000000000000000e+04
1.952400000000000000e+04
1.941200000000000000e+04
1.928400000000000000e+04
1.926800000000000000e+04
1.926800000000000000e+04
1.915600000000000000e+04
1.901200000000000000e+04
1.885200000000000000e+04
1.869200000000000000e+04
1.856400000000000000e+04
1.851600000000000000e+04
1.858000000000000000e+04
1.856400000000000000e+04
1.845200000000000000e+04
1.845200000000000000e+04
1.858000000000000000e+04
1.875600000000000000e+04
1.893200000000000000e+04
1.893200000000000000e+04
1.885200000000000000e+04
1.870800000000000000e+04
1.864400000000000000e+04
1.861200000000000000e+04
1.866000000000000000e+04
1.864400000000000000e+04
1.851600000000000000e+04
1.837200000000000000e+04
1.832400000000000000e+04
1.827600000000000000e+04
1.824400000000000000e+04
1.827600000000000000e+04
1.840400000000000000e+04
1.861200000000000000e+04
1.883600000000000000e+04
1.909200000000000000e+04
1.930000000000000000e+04
1.942800000000000000e+04
1.926800000000000000e+04
1.938000000000000000e+04
1.973200000000000000e+04
2.013200000000000000e+04
2.048500000000000000e+04
2.093300000000000000e+04
2.134900000000000000e+04
2.150900000000000000e+04
2.138100000000000000e+04
2.133300000000000000e+04
2.131700000000000000e+04
2.130100000000000000e+04
2.126900000000000000e+04
2.122100000000000000e+04
2.118900000000000000e+04
2.123700000000000000e+04
2.125300000000000000e+04
2.114100000000000000e+04
2.091700000000000000e+04
2.080500000000000000e+04
2.082100000000000000e+04
2.096500000000000000e+04
2.104500000000000000e+04
2.096500000000000000e+04
2.080500000000000000e+04
2.078900000000000000e+04
2.086900000000000000e+04
2.088500000000000000e+04
2.082100000000000000e+04
2.069300000000000000e+04
2.051700000000000000e+04
2.040400000000000000e+04
2.024400000000000000e+04
2.010000000000000000e+04
2.010000000000000000e+04
2.026000000000000000e+04
2.086900000000000000e+04
2.122100000000000000e+04
2.125300000000000000e+04
2.112500000000000000e+04
2.106100000000000000e+04
2.107700000000000000e+04
2.109300000000000000e+04
2.112500000000000000e+04
2.115700000000000000e+04
2.120500000000000000e+04
2.125300000000000000e+04
2.109300000000000000e+04
2.096500000000000000e+04
2.080500000000000000e+04
2.077300000000000000e+04
2.080500000000000000e+04
2.088500000000000000e+04
2.077300000000000000e+04
2.070900000000000000e+04
2.053300000000000000e+04
2.040400000000000000e+04
2.032400000000000000e+04
2.019600000000000000e+04
2.003600000000000000e+04
1.994000000000000000e+04
1.989200000000000000e+04
1.992400000000000000e+04
2.000400000000000000e+04
2.011600000000000000e+04
2.022800000000000000e+04
2.014800000000000000e+04
2.005200000000000000e+04
2.011600000000000000e+04
2.026000000000000000e+04
2.046800000000000000e+04
2.048500000000000000e+04
2.050100000000000000e+04
2.045200000000000000e+04
2.042000000000000000e+04
2.040400000000000000e+04
2.035600000000000000e+04
2.018000000000000000e+04
2.006800000000000000e+04
1.998800000000000000e+04
1.994000000000000000e+04
2.000400000000000000e+04
2.018000000000000000e+04
2.032400000000000000e+04
2.037200000000000000e+04
2.030800000000000000e+04
2.019600000000000000e+04
2.022800000000000000e+04
2.024400000000000000e+04
2.022800000000000000e+04
2.024400000000000000e+04
2.040400000000000000e+04
2.061300000000000000e+04
2.067700000000000000e+04
2.067700000000000000e+04
2.056500000000000000e+04
2.045200000000000000e+04
2.042000000000000000e+04
2.042000000000000000e+04
2.027600000000000000e+04
2.038800000000000000e+04
2.078900000000000000e+04
2.122100000000000000e+04
2.154100000000000000e+04
2.171700000000000000e+04
2.163700000000000000e+04
2.157300000000000000e+04
2.168500000000000000e+04
2.184500000000000000e+04
2.192500000000000000e+04
2.203700000000000000e+04
2.214900000000000000e+04
2.224500000000000000e+04
2.234100000000000000e+04
2.222900000000000000e+04
2.224500000000000000e+04
2.250100000000000000e+04
2.294900000000000000e+04
2.331700000000000000e+04
2.346100000000000000e+04
2.334900000000000000e+04
2.322100000000000000e+04
2.330100000000000000e+04
2.358900000000000000e+04
2.378100000000000000e+04
2.395700000000000000e+04
2.402100000000000000e+04
2.408500000000000000e+04
2.410100000000000000e+04
2.398900000000000000e+04
2.382900000000000000e+04
2.378100000000000000e+04
2.390900000000000000e+04
2.416500000000000000e+04
2.438900000000000000e+04
2.440500000000000000e+04
2.424500000000000000e+04
2.403700000000000000e+04
2.389300000000000000e+04
2.381300000000000000e+04
2.376500000000000000e+04
2.370100000000000000e+04
2.363700000000000000e+04
2.349300000000000000e+04
2.338100000000000000e+04
2.331700000000000000e+04
2.318900000000000000e+04
2.261300000000000000e+04
2.248500000000000000e+04
2.242100000000000000e+04
2.227700000000000000e+04
2.208500000000000000e+04
2.190900000000000000e+04
2.163700000000000000e+04
2.144500000000000000e+04
2.126900000000000000e+04
2.114100000000000000e+04
2.107700000000000000e+04
2.099700000000000000e+04
2.091700000000000000e+04
2.085300000000000000e+04
2.067700000000000000e+04
2.050100000000000000e+04
2.045200000000000000e+04
2.053300000000000000e+04
2.067700000000000000e+04
2.082100000000000000e+04
2.078900000000000000e+04
2.062900000000000000e+04
2.050100000000000000e+04
2.048500000000000000e+04
2.067700000000000000e+04
2.088500000000000000e+04
2.107700000000000000e+04
2.122100000000000000e+04
2.138100000000000000e+04
2.130100000000000000e+04
2.118900000000000000e+04
2.138100000000000000e+04
2.179700000000000000e+04
2.203700000000000000e+04
2.190900000000000000e+04
2.205300000000000000e+04
2.235700000000000000e+04
2.258100000000000000e+04
2.243700000000000000e+04
2.245300000000000000e+04
2.266100000000000000e+04
2.286900000000000000e+04
2.312500000000000000e+04
2.358900000000000000e+04
2.406900000000000000e+04
2.456500000000000000e+04
2.474200000000000000e+04
2.464600000000000000e+04
2.490200000000000000e+04
2.554200000000000000e+04
2.631000000000000000e+04
2.695000000000000000e+04
2.731800000000000000e+04
2.744600000000000000e+04
2.735000000000000000e+04
2.712600000000000000e+04
2.688600000000000000e+04
2.671000000000000000e+04
2.658200000000000000e+04
2.655000000000000000e+04
2.672600000000000000e+04
2.701400000000000000e+04
2.723800000000000000e+04
2.736600000000000000e+04
2.722200000000000000e+04
2.704600000000000000e+04
2.683800000000000000e+04
2.663000000000000000e+04
2.637400000000000000e+04
2.618200000000000000e+04
2.605400000000000000e+04
2.595800000000000000e+04
2.583000000000000000e+04
2.567000000000000000e+04
2.549400000000000000e+04
2.528600000000000000e+04
2.515800000000000000e+04
2.507800000000000000e+04
2.509400000000000000e+04
2.499800000000000000e+04
2.483800000000000000e+04
2.461400000000000000e+04
2.456500000000000000e+04
2.456500000000000000e+04
2.456500000000000000e+04
2.480600000000000000e+04
2.517400000000000000e+04
2.555800000000000000e+04
2.578200000000000000e+04
2.583000000000000000e+04
2.587800000000000000e+04
2.587800000000000000e+04
2.575000000000000000e+04
2.560600000000000000e+04
2.552600000000000000e+04
2.549400000000000000e+04
2.551000000000000000e+04
2.555800000000000000e+04
2.563800000000000000e+04
2.575000000000000000e+04
2.576600000000000000e+04
2.591000000000000000e+04
2.616600000000000000e+04
2.648600000000000000e+04
2.672600000000000000e+04
2.682200000000000000e+04
2.683800000000000000e+04
2.677400000000000000e+04
2.659800000000000000e+04
2.659800000000000000e+04
2.658200000000000000e+04
2.643800000000000000e+04
2.690200000000000000e+04
2.707800000000000000e+04
2.730200000000000000e+04
2.759000000000000000e+04
2.776600000000000000e+04
2.770200000000000000e+04
2.775000000000000000e+04
2.797400000000000000e+04
2.805400000000000000e+04
2.799000000000000000e+04
2.787800000000000000e+04
2.781400000000000000e+04
2.771800000000000000e+04
2.765400000000000000e+04
2.754200000000000000e+04
2.735000000000000000e+04
2.719000000000000000e+04
2.727000000000000000e+04
2.741400000000000000e+04
2.739800000000000000e+04
2.720600000000000000e+04
2.714200000000000000e+04
2.719000000000000000e+04
2.727000000000000000e+04
2.714200000000000000e+04
2.691800000000000000e+04
2.680600000000000000e+04
2.691800000000000000e+04
2.706200000000000000e+04
2.711000000000000000e+04
2.709400000000000000e+04
2.699800000000000000e+04
2.677400000000000000e+04
2.658200000000000000e+04
2.642200000000000000e+04
2.629400000000000000e+04
2.626200000000000000e+04
2.618200000000000000e+04
2.619800000000000000e+04
2.629400000000000000e+04
2.655000000000000000e+04
2.682200000000000000e+04
2.712600000000000000e+04
2.731800000000000000e+04
2.738200000000000000e+04
2.746200000000000000e+04
2.741400000000000000e+04
2.739800000000000000e+04
2.770200000000000000e+04
2.810200000000000000e+04
2.847000000000000000e+04
2.877500000000000000e+04
2.899900000000000000e+04
2.896700000000000000e+04
2.877500000000000000e+04
2.861400000000000000e+04
2.863000000000000000e+04
2.861400000000000000e+04
2.858200000000000000e+04
2.858200000000000000e+04
2.859800000000000000e+04
2.843800000000000000e+04
2.821400000000000000e+04
2.797400000000000000e+04
2.781400000000000000e+04
2.779800000000000000e+04
2.783000000000000000e+04
2.789400000000000000e+04
2.797400000000000000e+04
2.800600000000000000e+04
2.807000000000000000e+04
2.810200000000000000e+04
2.813400000000000000e+04
2.819800000000000000e+04
2.824600000000000000e+04
2.818200000000000000e+04
2.797400000000000000e+04
2.786200000000000000e+04
2.779800000000000000e+04
2.778200000000000000e+04
2.767000000000000000e+04
2.754200000000000000e+04
2.739800000000000000e+04
2.720600000000000000e+04
2.712600000000000000e+04
2.709400000000000000e+04
2.691800000000000000e+04
2.693400000000000000e+04
2.696600000000000000e+04
2.685400000000000000e+04
2.671000000000000000e+04
2.666200000000000000e+04
2.613400000000000000e+04
2.591000000000000000e+04
2.592600000000000000e+04
2.603800000000000000e+04
2.603800000000000000e+04
2.594200000000000000e+04
2.575000000000000000e+04
2.571800000000000000e+04
2.579800000000000000e+04
2.583000000000000000e+04
2.578200000000000000e+04
2.560600000000000000e+04
2.551000000000000000e+04
2.552600000000000000e+04
2.568600000000000000e+04
2.587800000000000000e+04
2.600600000000000000e+04
2.595800000000000000e+04
2.579800000000000000e+04
2.563800000000000000e+04
2.539800000000000000e+04
2.527000000000000000e+04
2.522200000000000000e+04
2.522200000000000000e+04
2.527000000000000000e+04
2.549400000000000000e+04
2.589400000000000000e+04
2.626200000000000000e+04
2.621400000000000000e+04
2.610200000000000000e+04
2.619800000000000000e+04
2.650200000000000000e+04
2.682200000000000000e+04
2.711000000000000000e+04
2.735000000000000000e+04
2.744600000000000000e+04
2.736600000000000000e+04
2.714200000000000000e+04
2.707800000000000000e+04
2.715800000000000000e+04
2.738200000000000000e+04
2.763800000000000000e+04
2.783000000000000000e+04
2.799000000000000000e+04
2.816600000000000000e+04
2.832600000000000000e+04
2.847000000000000000e+04
2.859800000000000000e+04
2.866200000000000000e+04
2.845400000000000000e+04
2.840600000000000000e+04
2.848600000000000000e+04
2.863000000000000000e+04
2.861400000000000000e+04
2.845400000000000000e+04
2.823000000000000000e+04
2.797400000000000000e+04
2.791000000000000000e+04
2.808600000000000000e+04
2.829400000000000000e+04
2.837400000000000000e+04
2.834200000000000000e+04
2.823000000000000000e+04
2.813400000000000000e+04
2.797400000000000000e+04
2.779800000000000000e+04
2.776600000000000000e+04
2.778200000000000000e+04
2.783000000000000000e+04
2.779800000000000000e+04
2.776600000000000000e+04
2.765400000000000000e+04
2.744600000000000000e+04
2.736600000000000000e+04
2.738200000000000000e+04
2.727000000000000000e+04
2.711000000000000000e+04
2.735000000000000000e+04
2.787800000000000000e+04
2.851800000000000000e+04
2.920700000000000000e+04
2.962300000000000000e+04
2.971900000000000000e+04
2.965500000000000000e+04
2.939900000000000000e+04
2.919100000000000000e+04
2.903100000000000000e+04
2.933500000000000000e+04
3.003900000000000000e+04
3.080700000000000000e+04
3.264700000000000000e+04
3.237500000000000000e+04
3.227900000000000000e+04
3.224700000000000000e+04
3.227900000000000000e+04
3.223100000000000000e+04
3.210300000000000000e+04
3.162300000000000000e+04
3.152700000000000000e+04
3.165500000000000000e+04
3.187900000000000000e+04
3.194300000000000000e+04
3.176700000000000000e+04
3.149500000000000000e+04
3.127100000000000000e+04
3.115900000000000000e+04
3.115900000000000000e+04
3.125500000000000000e+04
3.130300000000000000e+04
3.139900000000000000e+04
3.157500000000000000e+04
3.194300000000000000e+04
3.240700000000000000e+04
3.277600000000000000e+04
3.295200000000000000e+04
3.282400000000000000e+04
3.267900000000000000e+04
3.269500000000000000e+04
3.250300000000000000e+04
3.242300000000000000e+04
3.223100000000000000e+04
3.215100000000000000e+04
3.245500000000000000e+04
3.287200000000000000e+04
3.316000000000000000e+04
3.333600000000000000e+04
3.319200000000000000e+04
3.304800000000000000e+04
3.303200000000000000e+04
3.303200000000000000e+04
3.285600000000000000e+04
3.256700000000000000e+04
3.229500000000000000e+04
3.211900000000000000e+04
3.187900000000000000e+04
3.168700000000000000e+04
3.160700000000000000e+04
3.149500000000000000e+04
3.128700000000000000e+04
3.103100000000000000e+04
3.091900000000000000e+04
3.085500000000000000e+04
3.067900000000000000e+04
3.051900000000000000e+04
3.056700000000000000e+04
3.063100000000000000e+04
3.050300000000000000e+04
3.029500000000000000e+04
3.015100000000000000e+04
3.008700000000000000e+04
3.005500000000000000e+04
2.999100000000000000e+04
2.978300000000000000e+04
2.962300000000000000e+04
2.955900000000000000e+04
2.957500000000000000e+04
2.963900000000000000e+04
2.973500000000000000e+04
2.984700000000000000e+04
2.984700000000000000e+04
2.967100000000000000e+04
2.944700000000000000e+04
2.920700000000000000e+04
2.906300000000000000e+04
2.911100000000000000e+04
2.911100000000000000e+04
2.901500000000000000e+04
2.893500000000000000e+04
2.895100000000000000e+04
2.885500000000000000e+04
2.869500000000000000e+04
2.851800000000000000e+04
2.835800000000000000e+04
2.816600000000000000e+04
2.805400000000000000e+04
2.807000000000000000e+04
2.821400000000000000e+04
2.837400000000000000e+04
2.840600000000000000e+04
2.831000000000000000e+04
2.829400000000000000e+04
2.855000000000000000e+04
2.898300000000000000e+04
2.928700000000000000e+04
2.928700000000000000e+04
2.907900000000000000e+04
2.885500000000000000e+04
2.877500000000000000e+04
2.874300000000000000e+04
2.887100000000000000e+04
2.919100000000000000e+04
2.949500000000000000e+04
2.976700000000000000e+04
3.000700000000000000e+04
3.010300000000000000e+04
2.992700000000000000e+04
2.971900000000000000e+04
2.967100000000000000e+04
2.995900000000000000e+04
2.995900000000000000e+04
2.975100000000000000e+04
2.962300000000000000e+04
2.967100000000000000e+04
2.979900000000000000e+04
2.986300000000000000e+04
2.992700000000000000e+04
2.987900000000000000e+04
2.967100000000000000e+04
2.959100000000000000e+04
2.951100000000000000e+04
2.951100000000000000e+04
2.954300000000000000e+04
2.951100000000000000e+04
2.933500000000000000e+04
2.925500000000000000e+04
2.939900000000000000e+04
2.965500000000000000e+04
2.970300000000000000e+04
2.951100000000000000e+04
2.925500000000000000e+04
2.906300000000000000e+04
2.893500000000000000e+04
2.877500000000000000e+04
2.859800000000000000e+04
2.840600000000000000e+04
2.829400000000000000e+04
2.816600000000000000e+04
2.807000000000000000e+04
2.805400000000000000e+04
2.797400000000000000e+04
2.773400000000000000e+04
2.755800000000000000e+04
2.749400000000000000e+04
2.736600000000000000e+04
2.715800000000000000e+04
2.701400000000000000e+04
2.683800000000000000e+04
2.659800000000000000e+04
2.642200000000000000e+04
2.626200000000000000e+04
2.605400000000000000e+04
2.583000000000000000e+04
2.568600000000000000e+04
2.551000000000000000e+04
2.539800000000000000e+04
2.552600000000000000e+04
2.573400000000000000e+04
2.570200000000000000e+04
2.555800000000000000e+04
2.552600000000000000e+04
2.581400000000000000e+04
2.615000000000000000e+04
2.653400000000000000e+04
2.675800000000000000e+04
2.688600000000000000e+04
2.693400000000000000e+04
2.683800000000000000e+04
2.672600000000000000e+04
2.675800000000000000e+04
2.682200000000000000e+04
2.688600000000000000e+04
2.688600000000000000e+04
2.671000000000000000e+04
2.650200000000000000e+04
2.631000000000000000e+04
2.613400000000000000e+04
2.616600000000000000e+04
2.603800000000000000e+04
2.603800000000000000e+04
2.616600000000000000e+04
2.645400000000000000e+04
2.672600000000000000e+04
2.675800000000000000e+04
2.655000000000000000e+04
2.642200000000000000e+04
2.626200000000000000e+04
2.626200000000000000e+04
2.632600000000000000e+04
2.634200000000000000e+04
2.621400000000000000e+04
2.602200000000000000e+04
2.594200000000000000e+04
2.602200000000000000e+04
2.615000000000000000e+04
2.626200000000000000e+04
2.631000000000000000e+04
2.647000000000000000e+04
2.680600000000000000e+04
2.720600000000000000e+04
2.744600000000000000e+04
2.733400000000000000e+04
2.712600000000000000e+04
2.695000000000000000e+04
2.683800000000000000e+04
2.688600000000000000e+04
2.709400000000000000e+04
2.683800000000000000e+04
2.669400000000000000e+04
2.645400000000000000e+04
2.631000000000000000e+04
2.613400000000000000e+04
2.595800000000000000e+04
2.591000000000000000e+04
2.584600000000000000e+04
2.538200000000000000e+04
2.512600000000000000e+04
2.495000000000000000e+04
2.474200000000000000e+04
2.458200000000000000e+04
2.456500000000000000e+04
2.461400000000000000e+04
2.466200000000000000e+04
2.458200000000000000e+04
2.453300000000000000e+04
2.437300000000000000e+04
2.424500000000000000e+04
2.422900000000000000e+04
2.427700000000000000e+04
2.435700000000000000e+04
2.432500000000000000e+04
2.422900000000000000e+04
2.402100000000000000e+04
2.392500000000000000e+04
2.387700000000000000e+04
2.390900000000000000e+04
2.397300000000000000e+04
2.395700000000000000e+04
2.381300000000000000e+04
2.384500000000000000e+04
2.379700000000000000e+04
2.365300000000000000e+04
2.352500000000000000e+04
2.350900000000000000e+04
2.341300000000000000e+04
2.323700000000000000e+04
2.310900000000000000e+04
2.299700000000000000e+04
2.288500000000000000e+04
2.272500000000000000e+04
2.254900000000000000e+04
2.256500000000000000e+04
2.266100000000000000e+04
2.290100000000000000e+04
2.320500000000000000e+04
2.339700000000000000e+04
2.328500000000000000e+04
2.310900000000000000e+04
2.285300000000000000e+04
2.274100000000000000e+04
2.277300000000000000e+04
2.304500000000000000e+04
2.336500000000000000e+04
2.360500000000000000e+04
2.373300000000000000e+04
2.382900000000000000e+04
2.397300000000000000e+04
2.398900000000000000e+04
2.389300000000000000e+04
2.414900000000000000e+04
2.458200000000000000e+04
2.520600000000000000e+04
2.563800000000000000e+04
2.567000000000000000e+04
2.557400000000000000e+04
2.570200000000000000e+04
2.591000000000000000e+04
2.611800000000000000e+04
2.631000000000000000e+04
2.640600000000000000e+04
2.639000000000000000e+04
2.619800000000000000e+04
2.602200000000000000e+04
2.602200000000000000e+04
2.603800000000000000e+04
2.608600000000000000e+04
2.607000000000000000e+04
2.602200000000000000e+04
2.592600000000000000e+04
2.578200000000000000e+04
2.555800000000000000e+04
2.538200000000000000e+04
2.530200000000000000e+04
2.527000000000000000e+04
2.519000000000000000e+04
2.501400000000000000e+04
2.485400000000000000e+04
2.474200000000000000e+04
2.463000000000000000e+04
2.456500000000000000e+04
2.456500000000000000e+04
2.456500000000000000e+04
2.450100000000000000e+04
2.448500000000000000e+04
2.456500000000000000e+04
2.477400000000000000e+04
2.483800000000000000e+04
2.472600000000000000e+04
2.456500000000000000e+04
2.442100000000000000e+04
2.421300000000000000e+04
2.403700000000000000e+04
2.400500000000000000e+04
2.410100000000000000e+04
2.419700000000000000e+04
2.414900000000000000e+04
2.398900000000000000e+04
2.395700000000000000e+04
2.395700000000000000e+04
2.394100000000000000e+04
2.384500000000000000e+04
2.390900000000000000e+04
2.400500000000000000e+04
2.379700000000000000e+04
2.355700000000000000e+04
2.334900000000000000e+04
2.318900000000000000e+04
2.301300000000000000e+04
2.285300000000000000e+04
2.272500000000000000e+04
2.261300000000000000e+04
2.253300000000000000e+04
2.248500000000000000e+04
2.250100000000000000e+04
2.243700000000000000e+04
2.226100000000000000e+04
2.211700000000000000e+04
2.261300000000000000e+04
2.318900000000000000e+04
2.365300000000000000e+04
2.382900000000000000e+04
2.373300000000000000e+04
2.389300000000000000e+04
2.408500000000000000e+04
2.411700000000000000e+04
2.402100000000000000e+04
2.395700000000000000e+04
2.402100000000000000e+04
2.402100000000000000e+04
2.390900000000000000e+04
2.382900000000000000e+04
2.381300000000000000e+04
2.381300000000000000e+04
2.370100000000000000e+04
2.370100000000000000e+04
2.363700000000000000e+04
2.350900000000000000e+04
2.376500000000000000e+04
2.416500000000000000e+04
2.456500000000000000e+04
2.466200000000000000e+04
2.472600000000000000e+04
2.456500000000000000e+04
2.467800000000000000e+04
2.501400000000000000e+04
2.539800000000000000e+04
2.567000000000000000e+04
2.571800000000000000e+04
2.557400000000000000e+04
2.551000000000000000e+04
2.557400000000000000e+04
2.555800000000000000e+04
2.536600000000000000e+04
2.525400000000000000e+04
2.515800000000000000e+04
2.512600000000000000e+04
2.501400000000000000e+04
2.483800000000000000e+04
2.471000000000000000e+04
2.472600000000000000e+04
2.477400000000000000e+04
2.479000000000000000e+04
2.472600000000000000e+04
2.459800000000000000e+04
2.454900000000000000e+04
2.442100000000000000e+04
2.427700000000000000e+04
2.411700000000000000e+04
2.403700000000000000e+04
2.405300000000000000e+04
2.389300000000000000e+04
2.370100000000000000e+04
2.357300000000000000e+04
2.352500000000000000e+04
2.344500000000000000e+04
2.326900000000000000e+04
2.326900000000000000e+04
2.331700000000000000e+04
2.330100000000000000e+04
2.314100000000000000e+04
2.293300000000000000e+04
2.275700000000000000e+04
2.262900000000000000e+04
2.246900000000000000e+04
2.227700000000000000e+04
2.210100000000000000e+04
2.194100000000000000e+04
2.184500000000000000e+04
2.171700000000000000e+04
2.155700000000000000e+04
2.149300000000000000e+04
2.144500000000000000e+04
2.144500000000000000e+04
2.138100000000000000e+04
2.122100000000000000e+04
2.104500000000000000e+04
2.086900000000000000e+04
2.067700000000000000e+04
2.048500000000000000e+04
2.038800000000000000e+04
2.040400000000000000e+04
2.050100000000000000e+04
2.056500000000000000e+04
2.051700000000000000e+04
2.064500000000000000e+04
2.094900000000000000e+04
2.109300000000000000e+04
2.106100000000000000e+04
2.090100000000000000e+04
2.077300000000000000e+04
2.061300000000000000e+04
2.053300000000000000e+04
2.062900000000000000e+04
2.088500000000000000e+04
2.128500000000000000e+04
2.102900000000000000e+04
2.083700000000000000e+04
2.064500000000000000e+04
2.050100000000000000e+04
2.051700000000000000e+04
2.074100000000000000e+04
2.098100000000000000e+04
2.163700000000000000e+04
2.208500000000000000e+04
2.222900000000000000e+04
2.213300000000000000e+04
2.208500000000000000e+04
2.216500000000000000e+04
2.229300000000000000e+04
2.246900000000000000e+04
2.274100000000000000e+04
2.283700000000000000e+04
2.286900000000000000e+04
2.280500000000000000e+04
2.269300000000000000e+04
2.283700000000000000e+04
2.310900000000000000e+04
2.330100000000000000e+04
2.338100000000000000e+04
2.342900000000000000e+04
2.333300000000000000e+04
2.314100000000000000e+04
2.318900000000000000e+04
2.339700000000000000e+04
2.362100000000000000e+04
2.374900000000000000e+04
2.381300000000000000e+04
2.394100000000000000e+04
2.398900000000000000e+04
2.384500000000000000e+04
2.373300000000000000e+04
2.379700000000000000e+04
2.402100000000000000e+04
2.432500000000000000e+04
2.450100000000000000e+04
2.445300000000000000e+04
2.426100000000000000e+04
2.416500000000000000e+04
2.419700000000000000e+04
2.426100000000000000e+04
2.437300000000000000e+04
2.440500000000000000e+04
2.456500000000000000e+04
2.483800000000000000e+04
2.527000000000000000e+04
2.570200000000000000e+04
2.603800000000000000e+04
2.595800000000000000e+04
2.587800000000000000e+04
2.587800000000000000e+04
2.578200000000000000e+04
2.557400000000000000e+04
2.536600000000000000e+04
2.519000000000000000e+04
2.509400000000000000e+04
2.501400000000000000e+04
2.514200000000000000e+04
2.531800000000000000e+04
2.541400000000000000e+04
2.551000000000000000e+04
2.567000000000000000e+04
2.573400000000000000e+04
2.555800000000000000e+04
2.538200000000000000e+04
2.522200000000000000e+04
2.511000000000000000e+04
2.495000000000000000e+04
2.491800000000000000e+04
2.487000000000000000e+04
2.482200000000000000e+04
2.463000000000000000e+04
2.456500000000000000e+04
2.458200000000000000e+04
2.456500000000000000e+04
2.446900000000000000e+04
2.445300000000000000e+04
2.451700000000000000e+04
2.456500000000000000e+04
2.464600000000000000e+04
2.472600000000000000e+04
2.463000000000000000e+04
2.456500000000000000e+04
2.437300000000000000e+04
2.426100000000000000e+04
2.437300000000000000e+04
2.456500000000000000e+04
2.487000000000000000e+04
2.512600000000000000e+04
2.512600000000000000e+04
2.495000000000000000e+04
2.479000000000000000e+04
2.467800000000000000e+04
2.475800000000000000e+04
2.482200000000000000e+04
2.483800000000000000e+04
2.490200000000000000e+04
2.459800000000000000e+04
2.445300000000000000e+04
2.429300000000000000e+04
2.422900000000000000e+04
2.410100000000000000e+04
2.422900000000000000e+04
2.456500000000000000e+04
2.477400000000000000e+04
2.472600000000000000e+04
2.459800000000000000e+04
2.456500000000000000e+04
2.448500000000000000e+04
2.427700000000000000e+04
2.418100000000000000e+04
2.413300000000000000e+04
2.416500000000000000e+04
2.411700000000000000e+04
2.397300000000000000e+04
2.378100000000000000e+04
2.360500000000000000e+04
2.350900000000000000e+04
2.349300000000000000e+04
2.349300000000000000e+04
2.342900000000000000e+04
2.323700000000000000e+04
2.307700000000000000e+04
2.290100000000000000e+04
2.282100000000000000e+04
2.298100000000000000e+04
2.323700000000000000e+04
2.330100000000000000e+04
2.325300000000000000e+04
2.317300000000000000e+04
2.309300000000000000e+04
2.296500000000000000e+04
2.283700000000000000e+04
2.266100000000000000e+04
2.262900000000000000e+04
2.293300000000000000e+04
2.341300000000000000e+04
2.381300000000000000e+04
2.392500000000000000e+04
2.386100000000000000e+04
2.370100000000000000e+04
2.363700000000000000e+04
2.352500000000000000e+04
2.346100000000000000e+04
2.333300000000000000e+04
2.341300000000000000e+04
2.365300000000000000e+04
2.373300000000000000e+04
2.373300000000000000e+04
2.371700000000000000e+04
2.374900000000000000e+04
2.371700000000000000e+04
2.358900000000000000e+04
2.370100000000000000e+04
2.390900000000000000e+04
2.411700000000000000e+04
2.426100000000000000e+04
2.416500000000000000e+04
2.395700000000000000e+04
2.376500000000000000e+04
2.360500000000000000e+04
2.346100000000000000e+04
2.344500000000000000e+04
2.352500000000000000e+04
2.374900000000000000e+04
2.390900000000000000e+04
2.390900000000000000e+04
2.376500000000000000e+04
2.365300000000000000e+04
2.352500000000000000e+04
2.339700000000000000e+04
2.338100000000000000e+04
2.339700000000000000e+04
2.350900000000000000e+04
2.370100000000000000e+04
2.384500000000000000e+04
2.373300000000000000e+04
2.360500000000000000e+04
2.363700000000000000e+04
2.384500000000000000e+04
2.424500000000000000e+04
2.459800000000000000e+04
2.504600000000000000e+04
2.525400000000000000e+04
2.528600000000000000e+04
2.509400000000000000e+04
2.509400000000000000e+04
2.528600000000000000e+04
2.562200000000000000e+04
2.610200000000000000e+04
2.679000000000000000e+04
2.693400000000000000e+04
2.691800000000000000e+04
2.680600000000000000e+04
2.690200000000000000e+04
2.711000000000000000e+04
2.755800000000000000e+04
2.783000000000000000e+04
2.791000000000000000e+04
2.783000000000000000e+04
2.768600000000000000e+04
2.762200000000000000e+04
2.768600000000000000e+04
2.771800000000000000e+04
2.760600000000000000e+04
2.743000000000000000e+04
2.722200000000000000e+04
2.711000000000000000e+04
2.706200000000000000e+04
2.709400000000000000e+04
2.719000000000000000e+04
2.736600000000000000e+04
2.760600000000000000e+04
2.799000000000000000e+04
2.848600000000000000e+04
2.887100000000000000e+04
2.901500000000000000e+04
2.904700000000000000e+04
2.899900000000000000e+04
2.877500000000000000e+04
2.863000000000000000e+04
2.848600000000000000e+04
2.840600000000000000e+04
2.837400000000000000e+04
2.859800000000000000e+04
2.896700000000000000e+04
2.936700000000000000e+04
2.959100000000000000e+04
2.960700000000000000e+04
2.954300000000000000e+04
2.938300000000000000e+04
2.914300000000000000e+04
2.888700000000000000e+04
2.872700000000000000e+04
2.871100000000000000e+04
2.885500000000000000e+04
2.896700000000000000e+04
2.895100000000000000e+04
2.875900000000000000e+04
2.856600000000000000e+04
2.832600000000000000e+04
2.815000000000000000e+04
2.799000000000000000e+04
2.779800000000000000e+04
2.773400000000000000e+04
2.762200000000000000e+04
2.738200000000000000e+04
2.715800000000000000e+04
2.698200000000000000e+04
2.682200000000000000e+04
2.663000000000000000e+04
2.639000000000000000e+04
2.616600000000000000e+04
2.603800000000000000e+04
2.595800000000000000e+04
2.594200000000000000e+04
2.579800000000000000e+04
2.575000000000000000e+04
2.573400000000000000e+04
2.573400000000000000e+04
2.568600000000000000e+04
2.560600000000000000e+04
2.551000000000000000e+04
2.538200000000000000e+04
2.528600000000000000e+04
2.514200000000000000e+04
2.501400000000000000e+04
2.506200000000000000e+04
2.511000000000000000e+04
2.496600000000000000e+04
2.477400000000000000e+04
2.477400000000000000e+04
2.493400000000000000e+04
2.511000000000000000e+04
2.514200000000000000e+04
2.498200000000000000e+04
2.498200000000000000e+04
2.509400000000000000e+04
2.517400000000000000e+04
2.519000000000000000e+04
2.512600000000000000e+04
2.499800000000000000e+04
2.490200000000000000e+04
2.477400000000000000e+04
2.458200000000000000e+04
2.450100000000000000e+04
2.434100000000000000e+04
2.422900000000000000e+04
2.406900000000000000e+04
2.394100000000000000e+04
2.386100000000000000e+04
2.397300000000000000e+04
2.403700000000000000e+04
2.403700000000000000e+04
2.400500000000000000e+04
2.392500000000000000e+04
2.371700000000000000e+04
2.360500000000000000e+04
2.350900000000000000e+04
2.339700000000000000e+04
2.342900000000000000e+04
2.368500000000000000e+04
2.394100000000000000e+04
2.389300000000000000e+04
2.371700000000000000e+04
2.352500000000000000e+04
2.347700000000000000e+04
2.362100000000000000e+04
2.390900000000000000e+04
2.408500000000000000e+04
2.408500000000000000e+04
2.397300000000000000e+04
2.374900000000000000e+04
2.395700000000000000e+04
2.453300000000000000e+04
2.515800000000000000e+04
2.523800000000000000e+04
2.555800000000000000e+04
2.602200000000000000e+04
2.637400000000000000e+04
2.655000000000000000e+04
2.655000000000000000e+04
2.640600000000000000e+04
2.627800000000000000e+04
2.675800000000000000e+04
2.706200000000000000e+04
2.715800000000000000e+04
2.696600000000000000e+04
2.699800000000000000e+04
2.717400000000000000e+04
2.727000000000000000e+04
2.763800000000000000e+04
2.792600000000000000e+04
2.826200000000000000e+04
2.861400000000000000e+04
2.851800000000000000e+04
2.863000000000000000e+04
2.906300000000000000e+04
2.951100000000000000e+04
2.992700000000000000e+04
3.024700000000000000e+04
3.040700000000000000e+04
3.040700000000000000e+04
3.031100000000000000e+04
3.015100000000000000e+04
2.991100000000000000e+04
2.983100000000000000e+04
2.984700000000000000e+04
2.978300000000000000e+04
2.971900000000000000e+04
2.970300000000000000e+04
2.962300000000000000e+04
2.938300000000000000e+04
2.920700000000000000e+04
2.898300000000000000e+04
2.893500000000000000e+04
2.891900000000000000e+04
2.875900000000000000e+04
2.851800000000000000e+04
2.832600000000000000e+04
2.810200000000000000e+04
2.786200000000000000e+04
2.768600000000000000e+04
2.754200000000000000e+04
2.744600000000000000e+04
2.728600000000000000e+04
2.711000000000000000e+04
2.701400000000000000e+04
2.683800000000000000e+04
2.666200000000000000e+04
2.645400000000000000e+04
2.626200000000000000e+04
2.615000000000000000e+04
2.608600000000000000e+04
2.591000000000000000e+04
2.578200000000000000e+04
2.567000000000000000e+04
2.563800000000000000e+04
2.562200000000000000e+04
2.560600000000000000e+04
2.549400000000000000e+04
2.525400000000000000e+04
2.506200000000000000e+04
2.487000000000000000e+04
2.466200000000000000e+04
2.456500000000000000e+04
2.438900000000000000e+04
2.429300000000000000e+04
2.416500000000000000e+04
2.405300000000000000e+04
2.397300000000000000e+04
2.386100000000000000e+04
2.371700000000000000e+04
2.365300000000000000e+04
2.352500000000000000e+04
2.334900000000000000e+04
2.314100000000000000e+04
2.301300000000000000e+04
2.298100000000000000e+04
2.301300000000000000e+04
2.299700000000000000e+04
2.298100000000000000e+04
2.296500000000000000e+04
2.290100000000000000e+04
2.272500000000000000e+04
2.262900000000000000e+04
2.267700000000000000e+04
2.269300000000000000e+04
2.266100000000000000e+04
2.259700000000000000e+04
2.242100000000000000e+04
2.229300000000000000e+04
2.238900000000000000e+04
2.254900000000000000e+04
2.272500000000000000e+04
2.283700000000000000e+04
2.278900000000000000e+04
2.262900000000000000e+04
2.258100000000000000e+04
2.256500000000000000e+04
2.242100000000000000e+04
2.226100000000000000e+04
2.214900000000000000e+04
2.195700000000000000e+04
2.184500000000000000e+04
2.171700000000000000e+04
2.154100000000000000e+04
2.139700000000000000e+04
2.130100000000000000e+04
2.122100000000000000e+04
2.114100000000000000e+04
2.104500000000000000e+04
2.088500000000000000e+04
2.070900000000000000e+04
2.056500000000000000e+04
2.040400000000000000e+04
2.035600000000000000e+04
2.045200000000000000e+04
2.054900000000000000e+04
2.050100000000000000e+04
2.011600000000000000e+04
1.994000000000000000e+04
1.987600000000000000e+04
1.995600000000000000e+04
2.003600000000000000e+04
2.018000000000000000e+04
2.029200000000000000e+04
2.032400000000000000e+04
2.030800000000000000e+04
2.035600000000000000e+04
2.010000000000000000e+04
1.992400000000000000e+04
1.978000000000000000e+04
1.990800000000000000e+04
2.016400000000000000e+04
2.026000000000000000e+04
2.034000000000000000e+04
2.048500000000000000e+04
2.082100000000000000e+04
2.107700000000000000e+04
2.122100000000000000e+04
2.118900000000000000e+04
2.106100000000000000e+04
2.099700000000000000e+04
2.098100000000000000e+04
2.099700000000000000e+04
2.107700000000000000e+04
2.125300000000000000e+04
2.146100000000000000e+04
2.165300000000000000e+04
2.170100000000000000e+04
2.165300000000000000e+04
2.152500000000000000e+04
2.138100000000000000e+04
2.123700000000000000e+04
2.125300000000000000e+04
2.114100000000000000e+04
2.099700000000000000e+04
2.107700000000000000e+04
2.120500000000000000e+04
2.118900000000000000e+04
2.102900000000000000e+04
2.086900000000000000e+04
2.074100000000000000e+04
2.069300000000000000e+04
2.074100000000000000e+04
2.075700000000000000e+04
2.078900000000000000e+04
2.082100000000000000e+04
2.082100000000000000e+04
2.070900000000000000e+04
2.056500000000000000e+04
2.042000000000000000e+04
2.024400000000000000e+04
2.014800000000000000e+04
2.006800000000000000e+04
1.990800000000000000e+04
1.974800000000000000e+04
1.962000000000000000e+04
1.955600000000000000e+04
1.949200000000000000e+04
1.934800000000000000e+04
1.918800000000000000e+04
1.902800000000000000e+04
1.899600000000000000e+04
1.898000000000000000e+04
1.910800000000000000e+04
1.928400000000000000e+04
1.960400000000000000e+04
1.981200000000000000e+04
1.998800000000000000e+04
2.022800000000000000e+04
2.030800000000000000e+04
2.022800000000000000e+04
2.043600000000000000e+04
2.090100000000000000e+04
2.139700000000000000e+04
2.182900000000000000e+04
2.227700000000000000e+04
2.269300000000000000e+04
2.288500000000000000e+04
2.280500000000000000e+04
2.275700000000000000e+04
2.286900000000000000e+04
2.312500000000000000e+04
2.350900000000000000e+04
2.422900000000000000e+04
2.490200000000000000e+04
2.562200000000000000e+04
2.611800000000000000e+04
2.639000000000000000e+04
2.653400000000000000e+04
2.635800000000000000e+04
2.624600000000000000e+04
2.658200000000000000e+04
2.733400000000000000e+04
2.829400000000000000e+04
2.909500000000000000e+04
2.970300000000000000e+04
3.013500000000000000e+04
3.047100000000000000e+04
3.059900000000000000e+04
3.050300000000000000e+04
3.027900000000000000e+04
3.023100000000000000e+04
3.018300000000000000e+04
3.013500000000000000e+04
2.999100000000000000e+04
2.979900000000000000e+04
2.959100000000000000e+04
2.939900000000000000e+04
2.919100000000000000e+04
2.903100000000000000e+04
2.898300000000000000e+04
2.899900000000000000e+04
2.901500000000000000e+04
2.893500000000000000e+04
2.880700000000000000e+04
2.859800000000000000e+04
2.843800000000000000e+04
2.845400000000000000e+04
2.858200000000000000e+04
2.866200000000000000e+04
2.861400000000000000e+04
2.842200000000000000e+04
2.818200000000000000e+04
2.805400000000000000e+04
2.787800000000000000e+04
2.778200000000000000e+04
2.776600000000000000e+04
2.781400000000000000e+04
2.783000000000000000e+04
2.773400000000000000e+04
2.757400000000000000e+04
2.735000000000000000e+04
2.719000000000000000e+04
2.701400000000000000e+04
2.693400000000000000e+04
2.685400000000000000e+04
2.682200000000000000e+04
2.671000000000000000e+04
2.650200000000000000e+04
2.576600000000000000e+04
2.576600000000000000e+04
2.603800000000000000e+04
2.643800000000000000e+04
2.682200000000000000e+04
2.711000000000000000e+04
2.727000000000000000e+04
2.736600000000000000e+04
2.720600000000000000e+04
2.741400000000000000e+04
2.781400000000000000e+04
2.815000000000000000e+04
2.835800000000000000e+04
2.850200000000000000e+04
2.859800000000000000e+04
2.853400000000000000e+04
2.832600000000000000e+04
2.824600000000000000e+04
2.816600000000000000e+04
2.800600000000000000e+04
2.783000000000000000e+04
2.775000000000000000e+04
2.775000000000000000e+04
2.765400000000000000e+04
2.746200000000000000e+04
2.735000000000000000e+04
2.739800000000000000e+04
2.755800000000000000e+04
2.760600000000000000e+04
2.755800000000000000e+04
2.735000000000000000e+04
2.722200000000000000e+04
2.707800000000000000e+04
2.688600000000000000e+04
2.674200000000000000e+04
2.669400000000000000e+04
2.656600000000000000e+04
2.642200000000000000e+04
2.639000000000000000e+04
2.635800000000000000e+04
2.627800000000000000e+04
2.615000000000000000e+04
2.605400000000000000e+04
2.603800000000000000e+04
2.592600000000000000e+04
2.573400000000000000e+04
2.551000000000000000e+04
2.528600000000000000e+04
2.511000000000000000e+04
2.487000000000000000e+04
2.467800000000000000e+04
2.456500000000000000e+04
2.456500000000000000e+04
2.456500000000000000e+04
2.456500000000000000e+04
2.459800000000000000e+04
2.456500000000000000e+04
2.456500000000000000e+04
2.450100000000000000e+04
2.499800000000000000e+04
2.488600000000000000e+04
2.490200000000000000e+04
2.493400000000000000e+04
2.485400000000000000e+04
2.475800000000000000e+04
2.475800000000000000e+04
2.475800000000000000e+04
2.474200000000000000e+04
2.474200000000000000e+04
2.487000000000000000e+04
2.528600000000000000e+04
2.565400000000000000e+04
2.586200000000000000e+04
2.589400000000000000e+04
2.581400000000000000e+04
2.563800000000000000e+04
2.562200000000000000e+04
2.573400000000000000e+04
2.581400000000000000e+04
2.594200000000000000e+04
2.613400000000000000e+04
2.640600000000000000e+04
2.656600000000000000e+04
2.667800000000000000e+04
2.677400000000000000e+04
2.690200000000000000e+04
2.703000000000000000e+04
2.701400000000000000e+04
2.687000000000000000e+04
2.669400000000000000e+04
2.658200000000000000e+04
2.653400000000000000e+04
2.643800000000000000e+04
2.624600000000000000e+04
2.607000000000000000e+04
2.608600000000000000e+04
2.619800000000000000e+04
2.624600000000000000e+04
2.615000000000000000e+04
2.600600000000000000e+04
2.579800000000000000e+04
2.567000000000000000e+04
2.549400000000000000e+04
2.531800000000000000e+04
2.528600000000000000e+04
2.528600000000000000e+04
2.525400000000000000e+04
2.523800000000000000e+04
2.531800000000000000e+04
2.523800000000000000e+04
2.514200000000000000e+04
2.501400000000000000e+04
2.480600000000000000e+04
2.475800000000000000e+04
2.485400000000000000e+04
2.491800000000000000e+04
2.488600000000000000e+04
2.485400000000000000e+04
2.479000000000000000e+04
2.471000000000000000e+04
2.503000000000000000e+04
2.563800000000000000e+04
2.640600000000000000e+04
2.703000000000000000e+04
2.754200000000000000e+04
2.787800000000000000e+04
2.786200000000000000e+04
2.775000000000000000e+04
2.791000000000000000e+04
2.810200000000000000e+04
2.813400000000000000e+04
2.799000000000000000e+04
2.775000000000000000e+04
2.752600000000000000e+04
2.735000000000000000e+04
2.717400000000000000e+04
2.706200000000000000e+04
2.698200000000000000e+04
2.690200000000000000e+04
2.672600000000000000e+04
2.655000000000000000e+04
2.637400000000000000e+04
2.626200000000000000e+04
2.619800000000000000e+04
2.616600000000000000e+04
2.616600000000000000e+04
2.608600000000000000e+04
2.592600000000000000e+04
2.567000000000000000e+04
2.554200000000000000e+04
2.543000000000000000e+04
2.523800000000000000e+04
2.512600000000000000e+04
2.519000000000000000e+04
2.535000000000000000e+04
2.555800000000000000e+04
2.562200000000000000e+04
2.551000000000000000e+04
2.541400000000000000e+04
2.544600000000000000e+04
2.567000000000000000e+04
2.587800000000000000e+04
2.592600000000000000e+04
2.567000000000000000e+04
2.557400000000000000e+04
2.555800000000000000e+04
2.573400000000000000e+04
2.591000000000000000e+04
2.634200000000000000e+04
2.639000000000000000e+04
2.619800000000000000e+04
2.619800000000000000e+04
2.645400000000000000e+04
2.680600000000000000e+04
2.698200000000000000e+04
2.703000000000000000e+04
2.715800000000000000e+04
2.739800000000000000e+04
2.765400000000000000e+04
2.775000000000000000e+04
2.763800000000000000e+04
2.757400000000000000e+04
2.762200000000000000e+04
2.767000000000000000e+04
2.770200000000000000e+04
2.775000000000000000e+04
2.783000000000000000e+04
2.787800000000000000e+04
2.794200000000000000e+04
2.794200000000000000e+04
2.784600000000000000e+04
2.768600000000000000e+04
2.747800000000000000e+04
2.730200000000000000e+04
2.714200000000000000e+04
2.695000000000000000e+04
2.675800000000000000e+04
2.664600000000000000e+04
2.663000000000000000e+04
2.653400000000000000e+04
2.631000000000000000e+04
2.624600000000000000e+04
2.621400000000000000e+04
2.624600000000000000e+04
2.627800000000000000e+04
2.613400000000000000e+04
2.591000000000000000e+04
2.587800000000000000e+04
2.594200000000000000e+04
2.589400000000000000e+04
2.581400000000000000e+04
2.575000000000000000e+04
2.570200000000000000e+04
2.567000000000000000e+04
2.560600000000000000e+04
2.543000000000000000e+04
2.528600000000000000e+04
2.531800000000000000e+04
2.539800000000000000e+04
2.551000000000000000e+04
2.555800000000000000e+04
2.551000000000000000e+04
2.539800000000000000e+04
2.515800000000000000e+04
2.499800000000000000e+04
2.488600000000000000e+04
2.472600000000000000e+04
2.459800000000000000e+04
2.456500000000000000e+04
2.456500000000000000e+04
2.453300000000000000e+04
2.438900000000000000e+04
2.421300000000000000e+04
2.402100000000000000e+04
2.397300000000000000e+04
2.406900000000000000e+04
2.414900000000000000e+04
2.418100000000000000e+04
2.421300000000000000e+04
2.421300000000000000e+04
2.413300000000000000e+04
2.394100000000000000e+04
2.373300000000000000e+04
2.362100000000000000e+04
2.360500000000000000e+04
2.363700000000000000e+04
2.382900000000000000e+04
2.408500000000000000e+04
2.421300000000000000e+04
2.411700000000000000e+04
2.394100000000000000e+04
2.378100000000000000e+04
2.365300000000000000e+04
2.368500000000000000e+04
2.360500000000000000e+04
2.344500000000000000e+04
2.326900000000000000e+04
2.318900000000000000e+04
2.310900000000000000e+04
2.320500000000000000e+04
2.346100000000000000e+04
2.374900000000000000e+04
2.413300000000000000e+04
2.451700000000000000e+04
2.466200000000000000e+04
2.472600000000000000e+04
2.466200000000000000e+04
2.456500000000000000e+04
2.445300000000000000e+04
2.435700000000000000e+04
2.432500000000000000e+04
2.432500000000000000e+04
2.429300000000000000e+04
2.440500000000000000e+04
2.483800000000000000e+04
2.499800000000000000e+04
2.514200000000000000e+04
2.527000000000000000e+04
2.523800000000000000e+04
2.506200000000000000e+04
2.498200000000000000e+04
2.544600000000000000e+04
2.549400000000000000e+04
2.536600000000000000e+04
2.515800000000000000e+04
2.496600000000000000e+04
2.485400000000000000e+04
2.487000000000000000e+04
2.493400000000000000e+04
2.504600000000000000e+04
2.522200000000000000e+04
2.549400000000000000e+04
2.583000000000000000e+04
2.608600000000000000e+04
2.635800000000000000e+04
2.640600000000000000e+04
2.643800000000000000e+04
2.695000000000000000e+04
2.754200000000000000e+04
2.811800000000000000e+04
2.877500000000000000e+04
2.938300000000000000e+04
2.965500000000000000e+04
2.970300000000000000e+04
2.963900000000000000e+04
2.957500000000000000e+04
2.935100000000000000e+04
2.931900000000000000e+04
2.930300000000000000e+04
2.931900000000000000e+04
2.923900000000000000e+04
2.915900000000000000e+04
2.903100000000000000e+04
2.899900000000000000e+04
2.903100000000000000e+04
2.907900000000000000e+04
2.914300000000000000e+04
2.919100000000000000e+04
2.912700000000000000e+04
2.898300000000000000e+04
2.887100000000000000e+04
2.882300000000000000e+04
2.877500000000000000e+04
2.866200000000000000e+04
2.843800000000000000e+04
2.826200000000000000e+04
2.815000000000000000e+04
2.799000000000000000e+04
2.781400000000000000e+04
2.759000000000000000e+04
2.746200000000000000e+04
2.738200000000000000e+04
2.730200000000000000e+04
2.720600000000000000e+04
2.706200000000000000e+04
2.688600000000000000e+04
2.688600000000000000e+04
2.715800000000000000e+04
2.770200000000000000e+04
2.816600000000000000e+04
2.824600000000000000e+04
2.807000000000000000e+04
2.794200000000000000e+04
2.786200000000000000e+04
2.778200000000000000e+04
2.759000000000000000e+04
2.741400000000000000e+04
2.720600000000000000e+04
2.698200000000000000e+04
2.675800000000000000e+04
2.655000000000000000e+04
2.643800000000000000e+04
2.639000000000000000e+04
2.634200000000000000e+04
2.637400000000000000e+04
2.653400000000000000e+04
2.664600000000000000e+04
2.671000000000000000e+04
2.669400000000000000e+04
2.659800000000000000e+04
2.643800000000000000e+04
2.618200000000000000e+04
2.599000000000000000e+04
2.589400000000000000e+04
2.578200000000000000e+04
2.560600000000000000e+04
2.543000000000000000e+04
2.533400000000000000e+04
2.515800000000000000e+04
2.509400000000000000e+04
2.509400000000000000e+04
2.512600000000000000e+04
2.522200000000000000e+04
2.522200000000000000e+04
2.515800000000000000e+04
2.501400000000000000e+04
2.528600000000000000e+04
2.595800000000000000e+04
2.663000000000000000e+04
2.696600000000000000e+04
2.709400000000000000e+04
2.703000000000000000e+04
2.683800000000000000e+04
2.675800000000000000e+04
2.685400000000000000e+04
2.728600000000000000e+04
2.720600000000000000e+04
2.712600000000000000e+04
2.698200000000000000e+04
2.680600000000000000e+04
2.658200000000000000e+04
2.629400000000000000e+04
2.629400000000000000e+04
2.631000000000000000e+04
2.611800000000000000e+04
2.591000000000000000e+04
2.575000000000000000e+04
2.565400000000000000e+04
2.562200000000000000e+04
2.563800000000000000e+04
2.575000000000000000e+04
2.576600000000000000e+04
2.576600000000000000e+04
2.575000000000000000e+04
2.552600000000000000e+04
2.544600000000000000e+04
2.543000000000000000e+04
2.554200000000000000e+04
2.562200000000000000e+04
2.567000000000000000e+04
2.565400000000000000e+04
2.552600000000000000e+04
2.533400000000000000e+04
2.517400000000000000e+04
2.501400000000000000e+04
2.479000000000000000e+04
2.461400000000000000e+04
2.456500000000000000e+04
2.453300000000000000e+04
2.454900000000000000e+04
2.461400000000000000e+04
2.474200000000000000e+04
2.475800000000000000e+04
2.475800000000000000e+04
2.464600000000000000e+04
2.456500000000000000e+04
2.456500000000000000e+04
2.445300000000000000e+04
2.430900000000000000e+04
2.432500000000000000e+04
2.432500000000000000e+04
2.432500000000000000e+04
2.419700000000000000e+04
2.398900000000000000e+04
2.387700000000000000e+04
2.374900000000000000e+04
2.360500000000000000e+04
2.355700000000000000e+04
2.365300000000000000e+04
2.382900000000000000e+04
2.390900000000000000e+04
2.394100000000000000e+04
2.376500000000000000e+04
2.368500000000000000e+04
2.358900000000000000e+04
2.347700000000000000e+04
2.339700000000000000e+04
2.339700000000000000e+04
2.336500000000000000e+04
2.330100000000000000e+04
2.325300000000000000e+04
2.322100000000000000e+04
2.325300000000000000e+04
2.317300000000000000e+04
2.301300000000000000e+04
2.299700000000000000e+04
2.318900000000000000e+04
2.344500000000000000e+04
2.363700000000000000e+04
2.365300000000000000e+04
2.350900000000000000e+04
2.350900000000000000e+04
2.362100000000000000e+04
2.376500000000000000e+04
2.397300000000000000e+04
2.426100000000000000e+04
2.456500000000000000e+04
2.493400000000000000e+04
2.547800000000000000e+04
2.597400000000000000e+04
2.626200000000000000e+04
2.624600000000000000e+04
2.611800000000000000e+04
2.621400000000000000e+04
2.647000000000000000e+04
2.682200000000000000e+04
2.722200000000000000e+04
2.775000000000000000e+04
2.835800000000000000e+04
2.883900000000000000e+04
2.914300000000000000e+04
2.920700000000000000e+04
2.912700000000000000e+04
2.899900000000000000e+04
2.879100000000000000e+04
2.856600000000000000e+04
2.842200000000000000e+04
2.834200000000000000e+04
2.829400000000000000e+04
2.824600000000000000e+04
2.823000000000000000e+04
